MS01B
Wavelength = 1.54059
5	14.00
5.0204	10.00
5.0409	12.00
5.0613	5.00
5.0817	7.00
5.1021	10.00
5.1226	9.00
5.143	11.00
5.1634	11.00
5.1838	6.00
5.2042	12.00
5.2247	8.00
5.2451	9.00
5.2655	12.00
5.2859	7.00
5.3064	10.00
5.3268	5.00
5.3472	11.00
5.3676	8.00
5.3881	11.00
5.4085	8.00
5.4289	9.00
5.4493	12.00
5.4698	9.00
5.4902	13.00
5.5106	12.00
5.531	11.00
5.5515	12.00
5.5719	8.00
5.5923	7.00
5.6127	5.00
5.6332	13.00
5.6536	10.00
5.674	7.00
5.6944	11.00
5.7149	11.00
5.7353	10.00
5.7557	12.00
5.7761	6.00
5.7965	9.00
5.817	5.00
5.8374	9.00
5.8578	11.00
5.8782	11.00
5.8987	9.00
5.9191	9.00
5.9395	7.00
5.9599	13.00
5.9804	5.00
6.0008	9.00
6.0212	10.00
6.0416	11.00
6.0621	13.00
6.0825	14.00
6.1029	14.00
6.1233	5.00
6.1438	11.00
6.1642	7.00
6.1846	9.00
6.205	9.00
6.2255	6.00
6.2459	5.00
6.2663	11.00
6.2867	10.00
6.3072	8.00
6.3276	9.00
6.348	9.00
6.3684	7.00
6.3888	10.00
6.4093	7.00
6.4297	8.00
6.4501	7.00
6.4705	13.00
6.491	11.00
6.5114	11.00
6.5318	23.00
6.5522	10.00
6.5727	4.00
6.5931	12.00
6.6135	9.00
6.6339	15.00
6.6544	9.00
6.6748	8.00
6.6952	13.00
6.7156	11.00
6.7361	16.00
6.7565	12.00
6.7769	7.00
6.7973	6.00
6.8178	15.00
6.8382	5.00
6.8586	7.00
6.879	11.00
6.8995	17.00
6.9199	14.00
6.9403	7.00
6.9607	14.00
6.9812	6.00
7.0016	10.00
7.022	10.00
7.0424	11.00
7.0628	9.00
7.0833	6.00
7.1037	9.00
7.1241	11.00
7.1445	11.00
7.165	16.00
7.1854	11.00
7.2058	14.00
7.2262	19.00
7.2467	10.00
7.2671	7.00
7.2875	10.00
7.3079	9.00
7.3284	6.00
7.3488	5.00
7.3692	13.00
7.3896	11.00
7.4101	8.00
7.4305	12.00
7.4509	12.00
7.4713	6.00
7.4918	3.00
7.5122	14.00
7.5326	10.00
7.553	9.00
7.5735	6.00
7.5939	10.00
7.6143	11.00
7.6347	4.00
7.6551	11.00
7.6756	12.00
7.696	11.00
7.7164	17.00
7.7368	6.00
7.7573	6.00
7.7777	13.00
7.7981	8.00
7.8185	14.00
7.839	5.00
7.8594	7.00
7.8798	12.00
7.9002	14.00
7.9207	9.00
7.9411	11.00
7.9615	11.00
7.9819	10.00
8.0024	7.00
8.0228	12.00
8.0432	11.00
8.0636	6.00
8.0841	10.00
8.1045	10.00
8.1249	9.00
8.1453	7.00
8.1658	5.00
8.1862	7.00
8.2066	12.00
8.227	15.00
8.2475	11.00
8.2679	15.00
8.2883	11.00
8.3087	19.00
8.3291	11.00
8.3496	7.00
8.37	10.00
8.3904	11.00
8.4108	7.00
8.4313	10.00
8.4517	12.00
8.4721	13.00
8.4925	17.00
8.513	6.00
8.5334	19.00
8.5538	16.00
8.5742	6.00
8.5947	9.00
8.6151	8.00
8.6355	11.00
8.6559	12.00
8.6764	10.00
8.6968	10.00
8.7172	14.00
8.7376	8.00
8.7581	13.00
8.7785	13.00
8.7989	12.00
8.8193	11.00
8.8398	8.00
8.8602	14.00
8.8806	12.00
8.901	11.00
8.9214	16.00
8.9419	7.00
8.9623	18.00
8.9827	15.00
9.0031	12.00
9.0236	10.00
9.044	9.00
9.0644	10.00
9.0848	16.00
9.1053	13.00
9.1257	9.00
9.1461	15.00
9.1665	7.00
9.187	9.00
9.2074	8.00
9.2278	13.00
9.2482	9.00
9.2687	7.00
9.2891	15.00
9.3095	9.00
9.3299	15.00
9.3504	10.00
9.3708	10.00
9.3912	10.00
9.4116	11.00
9.4321	12.00
9.4525	11.00
9.4729	8.00
9.4933	8.00
9.5138	12.00
9.5342	12.00
9.5546	18.00
9.575	15.00
9.5954	9.00
9.6159	10.00
9.6363	18.00
9.6567	14.00
9.6771	11.00
9.6976	16.00
9.718	11.00
9.7384	14.00
9.7588	10.00
9.7793	16.00
9.7997	13.00
9.8201	14.00
9.8405	14.00
9.861	11.00
9.8814	9.00
9.9018	17.00
9.9222	7.00
9.9427	12.00
9.9631	13.00
9.9835	15.00
10.0039	15.00
10.0244	18.00
10.0448	12.00
10.0652	15.00
10.0856	7.00
10.1061	11.00
10.1265	8.00
10.1469	15.00
10.1673	23.00
10.1877	13.00
10.2082	11.00
10.2286	17.00
10.249	17.00
10.2694	18.00
10.2899	13.00
10.3103	14.00
10.3307	13.00
10.3511	9.00
10.3716	18.00
10.392	16.00
10.4124	13.00
10.4328	14.00
10.4533	9.00
10.4737	17.00
10.4941	15.00
10.5145	16.00
10.535	11.00
10.5554	22.00
10.5758	12.00
10.5962	20.00
10.6167	11.00
10.6371	13.00
10.6575	18.00
10.6779	9.00
10.6984	15.00
10.7188	14.00
10.7392	16.00
10.7596	12.00
10.7801	13.00
10.8005	19.00
10.8209	16.00
10.8413	13.00
10.8617	13.00
10.8822	20.00
10.9026	21.00
10.923	18.00
10.9434	11.00
10.9639	21.00
10.9843	17.00
11.0047	20.00
11.0251	11.00
11.0456	16.00
11.066	30.00
11.0864	21.00
11.1068	17.00
11.1273	23.00
11.1477	17.00
11.1681	15.00
11.1885	15.00
11.209	24.00
11.2294	14.00
11.2498	20.00
11.2702	25.00
11.2907	23.00
11.3111	22.00
11.3315	18.00
11.3519	15.00
11.3724	23.00
11.3928	21.00
11.4132	23.00
11.4336	20.00
11.454	28.00
11.4745	19.00
11.4949	23.00
11.5153	27.00
11.5357	31.00
11.5562	32.00
11.5766	39.00
11.597	29.00
11.6174	35.00
11.6379	29.00
11.6583	34.00
11.6787	25.00
11.6991	32.00
11.7196	38.00
11.74	37.00
11.7604	41.00
11.7808	32.00
11.8013	32.00
11.8217	44.00
11.8421	36.00
11.8625	46.00
11.883	63.00
11.9034	56.00
11.9238	63.00
11.9442	66.00
11.9647	60.00
11.9851	76.00
12.0055	80.00
12.0259	104.00
12.0464	132.00
12.0668	153.00
12.0872	216.00
12.1076	248.00
12.128	350.00
12.1485	474.00
12.1689	609.00
12.1893	568.00
12.2097	412.00
12.2302	238.00
12.2506	155.00
12.271	126.00
12.2914	92.00
12.3119	118.00
12.3323	108.00
12.3527	94.00
12.3731	88.00
12.3936	82.00
12.414	86.00
12.4344	90.00
12.4548	74.00
12.4753	61.00
12.4957	51.00
12.5161	46.00
12.5365	44.00
12.557	40.00
12.5774	46.00
12.5978	42.00
12.6182	34.00
12.6387	27.00
12.6591	34.00
12.6795	41.00
12.6999	27.00
12.7203	31.00
12.7408	30.00
12.7612	21.00
12.7816	33.00
12.802	21.00
12.8225	29.00
12.8429	20.00
12.8633	20.00
12.8837	17.00
12.9042	22.00
12.9246	26.00
12.945	25.00
12.9654	23.00
12.9859	25.00
13.0063	19.00
13.0267	16.00
13.0471	18.00
13.0676	15.00
13.088	16.00
13.1084	23.00
13.1288	21.00
13.1493	18.00
13.1697	18.00
13.1901	12.00
13.2105	19.00
13.231	12.00
13.2514	19.00
13.2718	16.00
13.2922	19.00
13.3126	22.00
13.3331	15.00
13.3535	21.00
13.3739	14.00
13.3943	17.00
13.4148	14.00
13.4352	17.00
13.4556	16.00
13.476	22.00
13.4965	21.00
13.5169	17.00
13.5373	13.00
13.5577	22.00
13.5782	23.00
13.5986	24.00
13.619	25.00
13.6394	19.00
13.6599	29.00
13.6803	17.00
13.7007	21.00
13.7211	22.00
13.7416	24.00
13.762	18.00
13.7824	19.00
13.8028	14.00
13.8233	23.00
13.8437	19.00
13.8641	20.00
13.8845	19.00
13.905	21.00
13.9254	28.00
13.9458	12.00
13.9662	20.00
13.9866	14.00
14.0071	14.00
14.0275	20.00
14.0479	15.00
14.0683	12.00
14.0888	19.00
14.1092	17.00
14.1296	20.00
14.15	15.00
14.1705	18.00
14.1909	18.00
14.2113	18.00
14.2317	14.00
14.2522	10.00
14.2726	20.00
14.293	12.00
14.3134	16.00
14.3339	19.00
14.3543	20.00
14.3747	32.00
14.3951	15.00
14.4156	10.00
14.436	16.00
14.4564	17.00
14.4768	22.00
14.4973	11.00
14.5177	15.00
14.5381	16.00
14.5585	12.00
14.5789	21.00
14.5994	17.00
14.6198	17.00
14.6402	12.00
14.6606	16.00
14.6811	13.00
14.7015	26.00
14.7219	22.00
14.7423	18.00
14.7628	12.00
14.7832	14.00
14.8036	20.00
14.824	11.00
14.8445	12.00
14.8649	15.00
14.8853	20.00
14.9057	12.00
14.9262	15.00
14.9466	17.00
14.967	13.00
14.9874	15.00
15.0079	11.00
15.0283	18.00
15.0487	15.00
15.0691	13.00
15.0896	12.00
15.11	15.00
15.1304	22.00
15.1508	15.00
15.1713	13.00
15.1917	12.00
15.2121	15.00
15.2325	17.00
15.2529	15.00
15.2734	12.00
15.2938	17.00
15.3142	14.00
15.3346	28.00
15.3551	22.00
15.3755	8.00
15.3959	13.00
15.4163	10.00
15.4368	16.00
15.4572	11.00
15.4776	19.00
15.498	13.00
15.5185	12.00
15.5389	16.00
15.5593	15.00
15.5797	15.00
15.6002	16.00
15.6206	11.00
15.641	17.00
15.6614	14.00
15.6819	6.00
15.7023	10.00
15.7227	15.00
15.7431	14.00
15.7636	12.00
15.784	11.00
15.8044	10.00
15.8248	21.00
15.8452	15.00
15.8657	15.00
15.8861	15.00
15.9065	13.00
15.9269	13.00
15.9474	8.00
15.9678	19.00
15.9882	6.00
16.0086	11.00
16.0291	16.00
16.0495	11.00
16.0699	11.00
16.0903	11.00
16.1108	12.00
16.1312	20.00
16.1516	15.00
16.172	18.00
16.1925	16.00
16.2129	17.00
16.2333	12.00
16.2537	11.00
16.2742	9.00
16.2946	12.00
16.315	13.00
16.3354	18.00
16.3559	9.00
16.3763	16.00
16.3967	20.00
16.4171	18.00
16.4376	14.00
16.458	15.00
16.4784	11.00
16.4988	5.00
16.5192	18.00
16.5397	14.00
16.5601	9.00
16.5805	19.00
16.6009	24.00
16.6214	14.00
16.6418	14.00
16.6622	9.00
16.6826	16.00
16.7031	18.00
16.7235	17.00
16.7439	15.00
16.7643	16.00
16.7848	14.00
16.8052	16.00
16.8256	20.00
16.846	11.00
16.8665	11.00
16.8869	16.00
16.9073	11.00
16.9277	11.00
16.9482	13.00
16.9686	19.00
16.989	22.00
17.0094	26.00
17.0299	23.00
17.0503	12.00
17.0707	14.00
17.0911	18.00
17.1115	18.00
17.132	16.00
17.1524	22.00
17.1728	20.00
17.1932	9.00
17.2137	23.00
17.2341	19.00
17.2545	14.00
17.2749	26.00
17.2954	48.00
17.3158	75.00
17.3362	76.00
17.3566	46.00
17.3771	54.00
17.3975	27.00
17.4179	12.00
17.4383	23.00
17.4588	15.00
17.4792	13.00
17.4996	13.00
17.52	12.00
17.5405	7.00
17.5609	11.00
17.5813	15.00
17.6017	10.00
17.6222	9.00
17.6426	8.00
17.663	18.00
17.6834	15.00
17.7039	15.00
17.7243	15.00
17.7447	10.00
17.7651	11.00
17.7855	15.00
17.806	11.00
17.8264	9.00
17.8468	4.00
17.8672	11.00
17.8877	13.00
17.9081	13.00
17.9285	8.00
17.9489	12.00
17.9694	13.00
17.9898	13.00
18.0102	22.00
18.0306	12.00
18.0511	16.00
18.0715	5.00
18.0919	12.00
18.1123	21.00
18.1328	12.00
18.1532	15.00
18.1736	11.00
18.194	16.00
18.2145	15.00
18.2349	14.00
18.2553	22.00
18.2757	21.00
18.2962	21.00
18.3166	25.00
18.337	14.00
18.3574	13.00
18.3778	12.00
18.3983	16.00
18.4187	12.00
18.4391	7.00
18.4595	8.00
18.48	8.00
18.5004	15.00
18.5208	14.00
18.5412	9.00
18.5617	14.00
18.5821	17.00
18.6025	9.00
18.6229	13.00
18.6434	17.00
18.6638	12.00
18.6842	15.00
18.7046	16.00
18.7251	23.00
18.7455	14.00
18.7659	15.00
18.7863	20.00
18.8068	15.00
18.8272	21.00
18.8476	17.00
18.868	23.00
18.8885	38.00
18.9089	27.00
18.9293	27.00
18.9497	24.00
18.9702	32.00
18.9906	22.00
19.011	18.00
19.0314	33.00
19.0518	33.00
19.0723	28.00
19.0927	29.00
19.1131	28.00
19.1335	41.00
19.154	32.00
19.1744	41.00
19.1948	43.00
19.2152	42.00
19.2357	49.00
19.2561	62.00
19.2765	41.00
19.2969	46.00
19.3174	44.00
19.3378	52.00
19.3582	37.00
19.3786	50.00
19.3991	37.00
19.4195	31.00
19.4399	43.00
19.4603	39.00
19.4808	32.00
19.5012	40.00
19.5216	33.00
19.542	34.00
19.5625	27.00
19.5829	42.00
19.6033	32.00
19.6237	24.00
19.6441	31.00
19.6646	37.00
19.685	34.00
19.7054	31.00
19.7258	29.00
19.7463	43.00
19.7667	29.00
19.7871	37.00
19.8075	39.00
19.828	27.00
19.8484	35.00
19.8688	26.00
19.8892	35.00
19.9097	31.00
19.9301	24.00
19.9505	32.00
19.9709	29.00
19.9914	26.00
20.0118	27.00
20.0322	29.00
20.0526	32.00
20.0731	32.00
20.0935	39.00
20.1139	40.00
20.1343	21.00
20.1548	29.00
20.1752	22.00
20.1956	28.00
20.216	20.00
20.2365	27.00
20.2569	31.00
20.2773	21.00
20.2977	20.00
20.3181	22.00
20.3386	29.00
20.359	37.00
20.3794	29.00
20.3998	23.00
20.4203	33.00
20.4407	18.00
20.4611	31.00
20.4815	20.00
20.502	30.00
20.5224	26.00
20.5428	25.00
20.5632	36.00
20.5837	28.00
20.6041	33.00
20.6245	26.00
20.6449	31.00
20.6654	23.00
20.6858	27.00
20.7062	16.00
20.7266	22.00
20.7471	16.00
20.7675	30.00
20.7879	35.00
20.8083	24.00
20.8288	31.00
20.8492	33.00
20.8696	30.00
20.89	48.00
20.9104	37.00
20.9309	45.00
20.9513	26.00
20.9717	43.00
20.9921	35.00
21.0126	40.00
21.033	38.00
21.0534	37.00
21.0738	30.00
21.0943	42.00
21.1147	33.00
21.1351	32.00
21.1555	32.00
21.176	38.00
21.1964	24.00
21.2168	33.00
21.2372	27.00
21.2577	42.00
21.2781	32.00
21.2985	30.00
21.3189	30.00
21.3394	28.00
21.3598	28.00
21.3802	27.00
21.4006	26.00
21.4211	30.00
21.4415	35.00
21.4619	28.00
21.4823	24.00
21.5027	28.00
21.5232	31.00
21.5436	27.00
21.564	25.00
21.5844	27.00
21.6049	37.00
21.6253	22.00
21.6457	28.00
21.6661	29.00
21.6866	23.00
21.707	30.00
21.7274	32.00
21.7478	22.00
21.7683	19.00
21.7887	26.00
21.8091	27.00
21.8295	29.00
21.85	28.00
21.8704	31.00
21.8908	30.00
21.9112	19.00
21.9317	36.00
21.9521	32.00
21.9725	35.00
21.9929	24.00
22.0134	36.00
22.0338	25.00
22.0542	38.00
22.0746	28.00
22.0951	18.00
22.1155	29.00
22.1359	21.00
22.1563	36.00
22.1767	31.00
22.1972	27.00
22.2176	39.00
22.238	24.00
22.2584	27.00
22.2789	25.00
22.2993	25.00
22.3197	21.00
22.3401	28.00
22.3606	37.00
22.381	23.00
22.4014	35.00
22.4218	34.00
22.4423	41.00
22.4627	25.00
22.4831	28.00
22.5035	24.00
22.524	26.00
22.5444	28.00
22.5648	33.00
22.5852	27.00
22.6057	32.00
22.6261	38.00
22.6465	32.00
22.6669	41.00
22.6874	39.00
22.7078	37.00
22.7282	43.00
22.7486	33.00
22.769	70.00
22.7895	79.00
22.8099	126.00
22.8303	177.00
22.8507	194.00
22.8712	137.00
22.8916	129.00
22.912	93.00
22.9324	60.00
22.9529	42.00
22.9733	48.00
22.9937	37.00
23.0141	38.00
23.0346	38.00
23.055	38.00
23.0754	34.00
23.0958	38.00
23.1163	33.00
23.1367	27.00
23.1571	37.00
23.1775	29.00
23.198	30.00
23.2184	35.00
23.2388	26.00
23.2592	33.00
23.2797	30.00
23.3001	29.00
23.3205	26.00
23.3409	35.00
23.3614	32.00
23.3818	30.00
23.4022	30.00
23.4226	31.00
23.443	39.00
23.4635	31.00
23.4839	37.00
23.5043	27.00
23.5247	38.00
23.5452	42.00
23.5656	43.00
23.586	38.00
23.6064	27.00
23.6269	45.00
23.6473	32.00
23.6677	51.00
23.6881	37.00
23.7086	50.00
23.729	38.00
23.7494	53.00
23.7698	58.00
23.7903	60.00
23.8107	84.00
23.8311	77.00
23.8515	98.00
23.872	70.00
23.8924	77.00
23.9128	70.00
23.9332	68.00
23.9537	45.00
23.9741	51.00
23.9945	55.00
24.0149	57.00
24.0353	68.00
24.0558	47.00
24.0762	47.00
24.0966	59.00
24.117	61.00
24.1375	59.00
24.1579	61.00
24.1783	85.00
24.1987	69.00
24.2192	86.00
24.2396	94.00
24.26	81.00
24.2804	74.00
24.3009	110.00
24.3213	108.00
24.3417	129.00
24.3621	133.00
24.3826	165.00
24.403	150.00
24.4234	176.00
24.4438	197.00
24.4643	235.00
24.4847	264.00
24.5051	300.00
24.5255	363.00
24.546	406.00
24.5664	419.00
24.5868	491.00
24.6072	451.00
24.6277	443.00
24.6481	394.00
24.6685	412.00
24.6889	332.00
24.7093	290.00
24.7298	226.00
24.7502	200.00
24.7706	174.00
24.791	145.00
24.8115	131.00
24.8319	134.00
24.8523	114.00
24.8727	103.00
24.8932	99.00
24.9136	107.00
24.934	90.00
24.9544	92.00
24.9749	74.00
24.9953	78.00
25.0157	80.00
25.0361	73.00
25.0566	60.00
25.077	60.00
25.0974	62.00
25.1178	70.00
25.1383	47.00
25.1587	66.00
25.1791	53.00
25.1995	48.00
25.22	42.00
25.2404	40.00
25.2608	41.00
25.2812	55.00
25.3016	59.00
25.3221	45.00
25.3425	69.00
25.3629	53.00
25.3833	88.00
25.4038	122.00
25.4242	83.00
25.4446	73.00
25.465	87.00
25.4855	66.00
25.5059	73.00
25.5263	85.00
25.5467	68.00
25.5672	80.00
25.5876	80.00
25.608	73.00
25.6284	45.00
25.6489	34.00
25.6693	41.00
25.6897	38.00
25.7101	43.00
25.7306	32.00
25.751	39.00
25.7714	45.00
25.7918	27.00
25.8123	18.00
25.8327	26.00
25.8531	35.00
25.8735	39.00
25.894	27.00
25.9144	29.00
25.9348	24.00
25.9552	23.00
25.9756	17.00
25.9961	29.00
26.0165	34.00
26.0369	38.00
26.0573	22.00
26.0778	29.00
26.0982	26.00
26.1186	16.00
26.139	30.00
26.1595	25.00
26.1799	29.00
26.2003	25.00
26.2207	27.00
26.2412	25.00
26.2616	22.00
26.282	20.00
26.3024	24.00
26.3229	27.00
26.3433	25.00
26.3637	21.00
26.3841	29.00
26.4046	30.00
26.425	23.00
26.4454	25.00
26.4658	33.00
26.4863	20.00
26.5067	26.00
26.5271	25.00
26.5475	18.00
26.5679	34.00
26.5884	23.00
26.6088	33.00
26.6292	37.00
26.6496	20.00
26.6701	36.00
26.6905	31.00
26.7109	26.00
26.7313	25.00
26.7518	23.00
26.7722	24.00
26.7926	25.00
26.813	19.00
26.8335	28.00
26.8539	27.00
26.8743	25.00
26.8947	30.00
26.9152	25.00
26.9356	22.00
26.956	28.00
26.9764	29.00
26.9969	25.00
27.0173	24.00
27.0377	19.00
27.0581	21.00
27.0786	25.00
27.099	26.00
27.1194	24.00
27.1398	29.00
27.1603	22.00
27.1807	27.00
27.2011	30.00
27.2215	22.00
27.2419	16.00
27.2624	15.00
27.2828	23.00
27.3032	24.00
27.3236	25.00
27.3441	32.00
27.3645	20.00
27.3849	18.00
27.4053	26.00
27.4258	22.00
27.4462	21.00
27.4666	27.00
27.487	28.00
27.5075	19.00
27.5279	35.00
27.5483	48.00
27.5687	25.00
27.5892	27.00
27.6096	31.00
27.63	34.00
27.6504	29.00
27.6709	25.00
27.6913	22.00
27.7117	24.00
27.7321	15.00
27.7526	17.00
27.773	15.00
27.7934	19.00
27.8138	22.00
27.8342	25.00
27.8547	21.00
27.8751	17.00
27.8955	22.00
27.9159	22.00
27.9364	21.00
27.9568	22.00
27.9772	20.00
27.9976	23.00
28.0181	25.00
28.0385	32.00
28.0589	23.00
28.0793	16.00
28.0998	21.00
28.1202	23.00
28.1406	24.00
28.161	21.00
28.1815	23.00
28.2019	26.00
28.2223	31.00
28.2427	19.00
28.2632	27.00
28.2836	16.00
28.304	30.00
28.3244	17.00
28.3449	23.00
28.3653	19.00
28.3857	12.00
28.4061	16.00
28.4265	24.00
28.447	22.00
28.4674	14.00
28.4878	26.00
28.5082	27.00
28.5287	21.00
28.5491	26.00
28.5695	20.00
28.5899	15.00
28.6104	20.00
28.6308	22.00
28.6512	18.00
28.6716	27.00
28.6921	26.00
28.7125	25.00
28.7329	26.00
28.7533	17.00
28.7738	21.00
28.7942	17.00
28.8146	20.00
28.835	25.00
28.8555	22.00
28.8759	14.00
28.8963	16.00
28.9167	20.00
28.9372	21.00
28.9576	20.00
28.978	28.00
28.9984	20.00
29.0189	18.00
29.0393	25.00
29.0597	26.00
29.0801	15.00
29.1005	16.00
29.121	16.00
29.1414	19.00
29.1618	18.00
29.1822	18.00
29.2027	12.00
29.2231	22.00
29.2435	21.00
29.2639	24.00
29.2844	14.00
29.3048	17.00
29.3252	18.00
29.3456	27.00
29.3661	16.00
29.3865	25.00
29.4069	27.00
29.4273	15.00
29.4478	13.00
29.4682	26.00
29.4886	26.00
29.509	22.00
29.5295	37.00
29.5499	26.00
29.5703	36.00
29.5907	33.00
29.6112	37.00
29.6316	39.00
29.652	39.00
29.6724	37.00
29.6928	45.00
29.7133	43.00
29.7337	52.00
29.7541	63.00
29.7745	78.00
29.795	76.00
29.8154	62.00
29.8358	64.00
29.8562	76.00
29.8767	62.00
29.8971	45.00
29.9175	44.00
29.9379	35.00
29.9584	31.00
29.9788	23.00
29.9992	44.00
30.0196	35.00
30.0401	32.00
30.0605	48.00
30.0809	55.00
30.1013	47.00
30.1218	50.00
30.1422	48.00
30.1626	46.00
30.183	44.00
30.2035	35.00
30.2239	47.00
30.2443	39.00
30.2647	37.00
30.2852	34.00
30.3056	26.00
30.326	50.00
30.3464	31.00
30.3668	32.00
30.3873	21.00
30.4077	24.00
30.4281	20.00
30.4485	23.00
30.469	12.00
30.4894	19.00
30.5098	19.00
30.5302	23.00
30.5507	18.00
30.5711	27.00
30.5915	26.00
30.6119	19.00
30.6324	20.00
30.6528	18.00
30.6732	30.00
30.6936	20.00
30.7141	25.00
30.7345	26.00
30.7549	26.00
30.7753	24.00
30.7958	30.00
30.8162	22.00
30.8366	29.00
30.857	32.00
30.8775	33.00
30.8979	32.00
30.9183	26.00
30.9387	41.00
30.9591	17.00
30.9796	29.00
31	22.00
31.0204	20.00
31.0408	18.00
31.0613	20.00
31.0817	14.00
31.1021	14.00
31.1225	11.00
31.143	21.00
31.1634	14.00
31.1838	18.00
31.2042	19.00
31.2247	30.00
31.2451	25.00
31.2655	22.00
31.2859	27.00
31.3064	28.00
31.3268	22.00
31.3472	27.00
31.3676	22.00
31.3881	26.00
31.4085	23.00
31.4289	17.00
31.4493	25.00
31.4698	23.00
31.4902	24.00
31.5106	28.00
31.531	21.00
31.5515	28.00
31.5719	24.00
31.5923	16.00
31.6127	25.00
31.6331	23.00
31.6536	25.00
31.674	26.00
31.6944	26.00
31.7148	18.00
31.7353	19.00
31.7557	15.00
31.7761	24.00
31.7965	26.00
31.817	26.00
31.8374	24.00
31.8578	25.00
31.8782	21.00
31.8987	26.00
31.9191	33.00
31.9395	24.00
31.9599	31.00
31.9804	23.00
32.0008	32.00
32.0212	17.00
32.0416	28.00
32.0621	20.00
32.0825	37.00
32.1029	28.00
32.1233	25.00
32.1438	49.00
32.1642	48.00
32.1846	46.00
32.205	80.00
32.2254	147.00
32.2459	226.00
32.2663	314.00
32.2867	161.00
32.3071	136.00
32.3276	142.00
32.348	195.00
32.3684	102.00
32.3888	63.00
32.4093	35.00
32.4297	38.00
32.4501	26.00
32.4705	30.00
32.491	27.00
32.5114	32.00
32.5318	18.00
32.5522	29.00
32.5727	15.00
32.5931	22.00
32.6135	22.00
32.6339	28.00
32.6544	21.00
32.6748	27.00
32.6952	21.00
32.7156	19.00
32.7361	21.00
32.7565	24.00
32.7769	25.00
32.7973	30.00
32.8178	19.00
32.8382	28.00
32.8586	30.00
32.879	26.00
32.8994	23.00
32.9199	25.00
32.9403	22.00
32.9607	23.00
32.9811	38.00
33.0016	29.00
33.022	31.00
33.0424	27.00
33.0628	33.00
33.0833	38.00
33.1037	41.00
33.1241	19.00
33.1445	28.00
33.165	24.00
33.1854	25.00
33.2058	25.00
33.2262	26.00
33.2467	23.00
33.2671	23.00
33.2875	28.00
33.3079	21.00
33.3284	20.00
33.3488	25.00
33.3692	32.00
33.3896	34.00
33.4101	34.00
33.4305	26.00
33.4509	25.00
33.4713	37.00
33.4917	19.00
33.5122	34.00
33.5326	27.00
33.553	38.00
33.5734	28.00
33.5939	40.00
33.6143	42.00
33.6347	42.00
33.6551	36.00
33.6756	47.00
33.696	32.00
33.7164	51.00
33.7368	36.00
33.7573	34.00
33.7777	29.00
33.7981	44.00
33.8185	32.00
33.839	37.00
33.8594	31.00
33.8798	35.00
33.9002	50.00
33.9207	39.00
33.9411	47.00
33.9615	36.00
33.9819	26.00
34.0024	43.00
34.0228	39.00
34.0432	41.00
34.0636	40.00
34.0841	32.00
34.1045	48.00
34.1249	44.00
34.1453	43.00
34.1657	42.00
34.1862	58.00
34.2066	39.00
34.227	48.00
34.2474	32.00
34.2679	49.00
34.2883	55.00
34.3087	54.00
34.3291	52.00
34.3496	34.00
34.37	49.00
34.3904	50.00
34.4108	67.00
34.4313	54.00
34.4517	58.00
34.4721	59.00
34.4925	53.00
34.513	59.00
34.5334	59.00
34.5538	67.00
34.5742	51.00
34.5947	66.00
34.6151	65.00
34.6355	80.00
34.6559	66.00
34.6764	49.00
34.6968	70.00
34.7172	69.00
34.7376	68.00
34.758	52.00
34.7785	72.00
34.7989	49.00
34.8193	61.00
34.8397	64.00
34.8602	60.00
34.8806	85.00
34.901	81.00
34.9214	87.00
34.9419	79.00
34.9623	78.00
34.9827	82.00
35.0031	77.00
35.0236	75.00
35.044	82.00
35.0644	55.00
35.0848	75.00
35.1053	83.00
35.1257	90.00
35.1461	84.00
35.1665	86.00
35.187	96.00
35.2074	120.00
35.2278	107.00
35.2482	108.00
35.2687	106.00
35.2891	135.00
35.3095	156.00
35.3299	178.00
35.3503	193.00
35.3708	223.00
35.3912	284.00
35.4116	343.00
35.432	384.00
35.4525	441.00
35.4729	425.00
35.4933	442.00
35.5137	448.00
35.5342	451.00
35.5546	449.00
35.575	407.00
35.5954	405.00
35.6159	473.00
35.6363	582.00
35.6567	557.00
35.6771	403.00
35.6976	270.00
35.718	326.00
35.7384	331.00
35.7588	281.00
35.7793	180.00
35.7997	163.00
35.8201	155.00
35.8405	152.00
35.861	146.00
35.8814	137.00
35.9018	137.00
35.9222	117.00
35.9427	99.00
35.9631	96.00
35.9835	95.00
36.0039	91.00
36.0243	106.00
36.0448	90.00
36.0652	83.00
36.0856	80.00
36.106	90.00
36.1265	83.00
36.1469	76.00
36.1673	80.00
36.1877	88.00
36.2082	69.00
36.2286	75.00
36.249	90.00
36.2694	76.00
36.2899	79.00
36.3103	91.00
36.3307	91.00
36.3511	96.00
36.3716	101.00
36.392	139.00
36.4124	184.00
36.4328	300.00
36.4533	447.00
36.4737	374.00
36.4941	228.00
36.5145	211.00
36.535	241.00
36.5554	283.00
36.5758	223.00
36.5962	128.00
36.6166	121.00
36.6371	105.00
36.6575	98.00
36.6779	113.00
36.6983	100.00
36.7188	100.00
36.7392	89.00
36.7596	84.00
36.78	76.00
36.8005	74.00
36.8209	74.00
36.8413	79.00
36.8617	95.00
36.8822	63.00
36.9026	87.00
36.923	79.00
36.9434	64.00
36.9639	83.00
36.9843	76.00
37.0047	83.00
37.0251	91.00
37.0456	79.00
37.066	100.00
37.0864	102.00
37.1068	93.00
37.1273	95.00
37.1477	90.00
37.1681	88.00
37.1885	64.00
37.209	82.00
37.2294	65.00
37.2498	67.00
37.2702	68.00
37.2906	66.00
37.3111	63.00
37.3315	64.00
37.3519	62.00
37.3723	57.00
37.3928	57.00
37.4132	72.00
37.4336	59.00
37.454	64.00
37.4745	72.00
37.4949	56.00
37.5153	66.00
37.5357	47.00
37.5562	52.00
37.5766	58.00
37.597	58.00
37.6174	50.00
37.6379	65.00
37.6583	53.00
37.6787	70.00
37.6991	68.00
37.7196	76.00
37.74	60.00
37.7604	54.00
37.7808	46.00
37.8013	45.00
37.8217	48.00
37.8421	52.00
37.8625	46.00
37.8829	49.00
37.9034	48.00
37.9238	43.00
37.9442	41.00
37.9646	35.00
37.9851	45.00
38.0055	41.00
38.0259	35.00
38.0463	45.00
38.0668	43.00
38.0872	37.00
38.1076	50.00
38.128	42.00
38.1485	38.00
38.1689	42.00
38.1893	46.00
38.2097	76.00
38.2302	86.00
38.2506	73.00
38.271	58.00
38.2914	62.00
38.3119	55.00
38.3323	68.00
38.3527	41.00
38.3731	51.00
38.3936	50.00
38.414	49.00
38.4344	39.00
38.4548	42.00
38.4753	40.00
38.4957	41.00
38.5161	34.00
38.5365	35.00
38.5569	34.00
38.5774	38.00
38.5978	47.00
38.6182	38.00
38.6386	48.00
38.6591	35.00
38.6795	36.00
38.6999	43.00
38.7203	41.00
38.7408	40.00
38.7612	72.00
38.7816	72.00
38.802	91.00
38.8225	45.00
38.8429	46.00
38.8633	53.00
38.8837	64.00
38.9042	55.00
38.9246	45.00
38.945	37.00
38.9654	41.00
38.9859	30.00
39.0063	37.00
39.0267	32.00
39.0471	33.00
39.0676	41.00
39.088	35.00
39.1084	38.00
39.1288	43.00
39.1492	43.00
39.1697	43.00
39.1901	35.00
39.2105	34.00
39.2309	34.00
39.2514	35.00
39.2718	30.00
39.2922	31.00
39.3126	26.00
39.3331	43.00
39.3535	38.00
39.3739	52.00
39.3943	34.00
39.4148	44.00
39.4352	45.00
39.4556	40.00
39.476	50.00
39.4965	41.00
39.5169	53.00
39.5373	63.00
39.5577	68.00
39.5782	100.00
39.5986	150.00
39.619	241.00
39.6394	171.00
39.6599	107.00
39.6803	99.00
39.7007	113.00
39.7211	112.00
39.7416	132.00
39.762	81.00
39.7824	64.00
39.8028	35.00
39.8232	57.00
39.8437	47.00
39.8641	46.00
39.8845	54.00
39.9049	59.00
39.9254	77.00
39.9458	90.00
39.9662	147.00
39.9866	185.00
40.0071	134.00
40.0275	85.00
40.0479	77.00
40.0683	102.00
40.0888	131.00
40.1092	104.00
40.1296	86.00
40.15	66.00
40.1705	51.00
40.1909	49.00
40.2113	47.00
40.2317	43.00
40.2522	53.00
40.2726	56.00
40.293	35.00
40.3134	51.00
40.3339	44.00
40.3543	45.00
40.3747	44.00
40.3951	49.00
40.4155	50.00
40.436	46.00
40.4564	49.00
40.4768	54.00
40.4972	51.00
40.5177	51.00
40.5381	51.00
40.5585	53.00
40.5789	44.00
40.5994	48.00
40.6198	57.00
40.6402	65.00
40.6606	48.00
40.6811	59.00
40.7015	59.00
40.7219	43.00
40.7423	58.00
40.7628	47.00
40.7832	51.00
40.8036	53.00
40.824	47.00
40.8445	47.00
40.8649	42.00
40.8853	45.00
40.9057	48.00
40.9262	52.00
40.9466	54.00
40.967	46.00
40.9874	40.00
41.0079	34.00
41.0283	47.00
41.0487	52.00
41.0691	51.00
41.0895	44.00
41.11	45.00
41.1304	49.00
41.1508	62.00
41.1712	42.00
41.1917	47.00
41.2121	56.00
41.2325	50.00
41.2529	35.00
41.2734	59.00
41.2938	53.00
41.3142	58.00
41.3346	60.00
41.3551	63.00
41.3755	63.00
41.3959	74.00
41.4163	70.00
41.4368	79.00
41.4572	101.00
41.4776	86.00
41.498	97.00
41.5185	96.00
41.5389	108.00
41.5593	124.00
41.5797	120.00
41.6002	133.00
41.6206	140.00
41.641	100.00
41.6614	143.00
41.6818	139.00
41.7023	191.00
41.7227	206.00
41.7431	141.00
41.7635	127.00
41.784	125.00
41.8044	129.00
41.8248	151.00
41.8452	138.00
41.8657	127.00
41.8861	120.00
41.9065	100.00
41.9269	127.00
41.9474	123.00
41.9678	120.00
41.9882	106.00
42.0086	117.00
42.0291	110.00
42.0495	105.00
42.0699	106.00
42.0903	88.00
42.1108	78.00
42.1312	99.00
42.1516	73.00
42.172	69.00
42.1925	62.00
42.2129	59.00
42.2333	54.00
42.2537	51.00
42.2742	56.00
42.2946	79.00
42.315	62.00
42.3354	54.00
42.3558	45.00
42.3763	52.00
42.3967	61.00
42.4171	47.00
42.4375	53.00
42.458	39.00
42.4784	49.00
42.4988	38.00
42.5192	47.00
42.5397	44.00
42.5601	37.00
42.5805	44.00
42.6009	44.00
42.6214	49.00
42.6418	59.00
42.6622	41.00
42.6826	34.00
42.7031	52.00
42.7235	58.00
42.7439	47.00
42.7643	42.00
42.7848	48.00
42.8052	50.00
42.8256	33.00
42.846	36.00
42.8665	45.00
42.8869	45.00
42.9073	51.00
42.9277	49.00
42.9481	47.00
42.9686	59.00
42.989	53.00
43.0094	43.00
43.0298	78.00
43.0503	63.00
43.0707	67.00
43.0911	71.00
43.1115	67.00
43.132	65.00
43.1524	50.00
43.1728	62.00
43.1932	41.00
43.2137	60.00
43.2341	59.00
43.2545	53.00
43.2749	46.00
43.2954	54.00
43.3158	37.00
43.3362	45.00
43.3566	44.00
43.3771	31.00
43.3975	43.00
43.4179	22.00
43.4383	38.00
43.4588	31.00
43.4792	41.00
43.4996	36.00
43.52	38.00
43.5404	32.00
43.5609	28.00
43.5813	40.00
43.6017	42.00
43.6221	33.00
43.6426	33.00
43.663	31.00
43.6834	35.00
43.7038	30.00
43.7243	25.00
43.7447	40.00
43.7651	27.00
43.7855	27.00
43.806	33.00
43.8264	29.00
43.8468	16.00
43.8672	45.00
43.8877	34.00
43.9081	35.00
43.9285	34.00
43.9489	23.00
43.9694	27.00
43.9898	40.00
44.0102	36.00
44.0306	33.00
44.0511	30.00
44.0715	34.00
44.0919	30.00
44.1123	26.00
44.1328	37.00
44.1532	26.00
44.1736	36.00
44.194	35.00
44.2144	23.00
44.2349	37.00
44.2553	31.00
44.2757	38.00
44.2961	35.00
44.3166	22.00
44.337	47.00
44.3574	41.00
44.3778	31.00
44.3983	41.00
44.4187	34.00
44.4391	58.00
44.4595	45.00
44.48	47.00
44.5004	52.00
44.5208	36.00
44.5412	23.00
44.5617	31.00
44.5821	48.00
44.6025	52.00
44.6229	39.00
44.6434	31.00
44.6638	25.00
44.6842	32.00
44.7046	25.00
44.7251	13.00
44.7455	37.00
44.7659	27.00
44.7863	34.00
44.8067	28.00
44.8272	27.00
44.8476	28.00
44.868	18.00
44.8884	32.00
44.9089	33.00
44.9293	28.00
44.9497	33.00
44.9701	30.00
44.9906	39.00
45.011	28.00
45.0314	25.00
45.0518	26.00
45.0723	26.00
45.0927	30.00
45.1131	32.00
45.1335	36.00
45.154	27.00
45.1744	22.00
45.1948	35.00
45.2152	20.00
45.2357	36.00
45.2561	18.00
45.2765	24.00
45.2969	21.00
45.3174	25.00
45.3378	31.00
45.3582	23.00
45.3786	32.00
45.3991	31.00
45.4195	23.00
45.4399	29.00
45.4603	38.00
45.4807	34.00
45.5012	20.00
45.5216	19.00
45.542	22.00
45.5624	17.00
45.5829	22.00
45.6033	36.00
45.6237	25.00
45.6441	33.00
45.6646	32.00
45.685	22.00
45.7054	23.00
45.7258	30.00
45.7463	27.00
45.7667	34.00
45.7871	16.00
45.8075	28.00
45.828	34.00
45.8484	27.00
45.8688	32.00
45.8892	26.00
45.9097	18.00
45.9301	25.00
45.9505	24.00
45.9709	21.00
45.9914	25.00
46.0118	32.00
46.0322	25.00
46.0526	28.00
46.073	31.00
46.0935	32.00
46.1139	32.00
46.1343	23.00
46.1547	21.00
46.1752	23.00
46.1956	27.00
46.216	30.00
46.2364	27.00
46.2569	38.00
46.2773	28.00
46.2977	28.00
46.3181	26.00
46.3386	38.00
46.359	37.00
46.3794	28.00
46.3998	26.00
46.4203	37.00
46.4407	36.00
46.4611	33.00
46.4815	38.00
46.502	40.00
46.5224	35.00
46.5428	24.00
46.5632	37.00
46.5837	34.00
46.6041	36.00
46.6245	39.00
46.6449	43.00
46.6654	42.00
46.6858	36.00
46.7062	31.00
46.7266	36.00
46.747	23.00
46.7675	36.00
46.7879	34.00
46.8083	29.00
46.8287	26.00
46.8492	29.00
46.8696	21.00
46.89	32.00
46.9104	19.00
46.9309	27.00
46.9513	24.00
46.9717	34.00
46.9921	33.00
47.0126	25.00
47.033	27.00
47.0534	25.00
47.0738	26.00
47.0943	40.00
47.1147	25.00
47.1351	16.00
47.1555	18.00
47.176	43.00
47.1964	20.00
47.2168	33.00
47.2372	28.00
47.2577	28.00
47.2781	27.00
47.2985	27.00
47.3189	25.00
47.3393	26.00
47.3598	25.00
47.3802	17.00
47.4006	22.00
47.421	31.00
47.4415	24.00
47.4619	25.00
47.4823	21.00
47.5027	32.00
47.5232	27.00
47.5436	18.00
47.564	29.00
47.5844	20.00
47.6049	28.00
47.6253	28.00
47.6457	28.00
47.6661	27.00
47.6866	24.00
47.707	25.00
47.7274	26.00
47.7478	26.00
47.7683	18.00
47.7887	25.00
47.8091	20.00
47.8295	18.00
47.85	20.00
47.8704	31.00
47.8908	27.00
47.9112	17.00
47.9317	24.00
47.9521	27.00
47.9725	37.00
47.9929	21.00
48.0133	46.00
48.0338	34.00
48.0542	44.00
48.0746	35.00
48.095	33.00
48.1155	46.00
48.1359	35.00
48.1563	39.00
48.1767	40.00
48.1972	37.00
48.2176	40.00
48.238	37.00
48.2584	30.00
48.2789	38.00
48.2993	33.00
48.3197	28.00
48.3401	45.00
48.3606	70.00
48.381	65.00
48.4014	77.00
48.4218	39.00
48.4423	36.00
48.4627	33.00
48.4831	44.00
48.5035	62.00
48.524	45.00
48.5444	38.00
48.5648	37.00
48.5852	37.00
48.6056	34.00
48.6261	33.00
48.6465	44.00
48.6669	44.00
48.6873	35.00
48.7078	35.00
48.7282	49.00
48.7486	37.00
48.769	42.00
48.7895	38.00
48.8099	43.00
48.8303	27.00
48.8507	50.00
48.8712	40.00
48.8916	42.00
48.912	41.00
48.9324	35.00
48.9529	35.00
48.9733	36.00
48.9937	39.00
49.0141	34.00
49.0346	52.00
49.055	38.00
49.0754	37.00
49.0958	48.00
49.1163	38.00
49.1367	33.00
49.1571	30.00
49.1775	38.00
49.198	33.00
49.2184	38.00
49.2388	35.00
49.2592	39.00
49.2796	45.00
49.3001	49.00
49.3205	38.00
49.3409	42.00
49.3613	56.00
49.3818	37.00
49.4022	58.00
49.4226	44.00
49.443	54.00
49.4635	49.00
49.4839	64.00
49.5043	44.00
49.5247	62.00
49.5452	62.00
49.5656	61.00
49.586	60.00
49.6064	61.00
49.6269	62.00
49.6473	75.00
49.6677	78.00
49.6881	62.00
49.7086	66.00
49.729	48.00
49.7494	51.00
49.7698	65.00
49.7903	67.00
49.8107	63.00
49.8311	38.00
49.8515	61.00
49.8719	40.00
49.8924	44.00
49.9128	45.00
49.9332	62.00
49.9536	48.00
49.9741	51.00
49.9945	42.00
50.0149	48.00
50.0353	60.00
50.0558	50.00
50.0762	66.00
50.0966	54.00
50.117	51.00
50.1375	47.00
50.1579	69.00
50.1783	75.00
50.1987	55.00
50.2192	68.00
50.2396	74.00
50.26	102.00
50.2804	85.00
50.3009	67.00
50.3213	75.00
50.3417	57.00
50.3621	61.00
50.3826	54.00
50.403	54.00
50.4234	53.00
50.4438	49.00
50.4642	52.00
50.4847	56.00
50.5051	37.00
50.5255	46.00
50.5459	56.00
50.5664	47.00
50.5868	39.00
50.6072	42.00
50.6276	55.00
50.6481	51.00
50.6685	43.00
50.6889	41.00
50.7093	46.00
50.7298	46.00
50.7502	40.00
50.7706	50.00
50.791	50.00
50.8115	51.00
50.8319	49.00
50.8523	60.00
50.8727	57.00
50.8932	76.00
50.9136	47.00
50.934	58.00
50.9544	42.00
50.9749	56.00
50.9953	53.00
51.0157	67.00
51.0361	58.00
51.0566	53.00
51.077	50.00
51.0974	48.00
51.1178	62.00
51.1382	55.00
51.1587	51.00
51.1791	50.00
51.1995	69.00
51.2199	56.00
51.2404	68.00
51.2608	65.00
51.2812	59.00
51.3016	75.00
51.3221	70.00
51.3425	62.00
51.3629	68.00
51.3833	72.00
51.4038	62.00
51.4242	78.00
51.4446	62.00
51.465	61.00
51.4855	54.00
51.5059	53.00
51.5263	48.00
51.5467	59.00
51.5672	59.00
51.5876	60.00
51.608	55.00
51.6284	34.00
51.6489	48.00
51.6693	51.00
51.6897	45.00
51.7101	42.00
51.7305	48.00
51.751	43.00
51.7714	41.00
51.7918	42.00
51.8122	42.00
51.8327	48.00
51.8531	52.00
51.8735	47.00
51.8939	38.00
51.9144	48.00
51.9348	61.00
51.9552	50.00
51.9756	45.00
51.9961	49.00
52.0165	60.00
52.0369	59.00
52.0573	83.00
52.0778	78.00
52.0982	97.00
52.1186	145.00
52.139	252.00
52.1595	336.00
52.1799	298.00
52.2003	213.00
52.2207	155.00
52.2412	112.00
52.2616	136.00
52.282	156.00
52.3024	206.00
52.3229	193.00
52.3433	136.00
52.3637	110.00
52.3841	93.00
52.4045	105.00
52.425	106.00
52.4454	168.00
52.4658	166.00
52.4862	147.00
52.5067	89.00
52.5271	92.00
52.5475	82.00
52.5679	96.00
52.5884	100.00
52.6088	108.00
52.6292	101.00
52.6496	89.00
52.6701	81.00
52.6905	73.00
52.7109	90.00
52.7313	79.00
52.7518	80.00
52.7722	66.00
52.7926	65.00
52.813	64.00
52.8335	69.00
52.8539	70.00
52.8743	76.00
52.8947	72.00
52.9152	68.00
52.9356	55.00
52.956	61.00
52.9764	70.00
52.9968	60.00
53.0173	41.00
53.0377	57.00
53.0581	47.00
53.0785	47.00
53.099	56.00
53.1194	51.00
53.1398	53.00
53.1602	45.00
53.1807	60.00
53.2011	50.00
53.2215	48.00
53.2419	35.00
53.2624	45.00
53.2828	42.00
53.3032	61.00
53.3236	52.00
53.3441	59.00
53.3645	56.00
53.3849	65.00
53.4053	65.00
53.4258	71.00
53.4462	64.00
53.4666	48.00
53.487	57.00
53.5075	66.00
53.5279	55.00
53.5483	84.00
53.5687	51.00
53.5892	55.00
53.6096	49.00
53.63	48.00
53.6504	61.00
53.6708	38.00
53.6913	47.00
53.7117	56.00
53.7321	45.00
53.7525	49.00
53.773	49.00
53.7934	52.00
53.8138	46.00
53.8342	34.00
53.8547	53.00
53.8751	45.00
53.8955	50.00
53.9159	55.00
53.9364	39.00
53.9568	35.00
53.9772	51.00
53.9976	35.00
54.0181	46.00
54.0385	44.00
54.0589	45.00
54.0793	47.00
54.0998	46.00
54.1202	36.00
54.1406	43.00
54.161	51.00
54.1815	35.00
54.2019	38.00
54.2223	40.00
54.2427	47.00
54.2631	45.00
54.2836	33.00
54.304	44.00
54.3244	38.00
54.3448	42.00
54.3653	39.00
54.3857	40.00
54.4061	43.00
54.4265	47.00
54.447	32.00
54.4674	35.00
54.4878	54.00
54.5082	29.00
54.5287	42.00
54.5491	42.00
54.5695	40.00
54.5899	48.00
54.6104	41.00
54.6308	54.00
54.6512	42.00
54.6716	44.00
54.6921	34.00
54.7125	48.00
54.7329	43.00
54.7533	45.00
54.7738	69.00
54.7942	81.00
54.8146	119.00
54.835	102.00
54.8555	62.00
54.8759	60.00
54.8963	58.00
54.9167	59.00
54.9371	56.00
54.9576	65.00
54.978	70.00
54.9984	45.00
55.0188	38.00
55.0393	55.00
55.0597	39.00
55.0801	51.00
55.1005	37.00
55.121	32.00
55.1414	27.00
55.1618	37.00
55.1822	51.00
55.2027	44.00
55.2231	39.00
55.2435	48.00
55.2639	38.00
55.2844	33.00
55.3048	43.00
55.3252	45.00
55.3456	26.00
55.3661	38.00
55.3865	33.00
55.4069	30.00
55.4273	36.00
55.4478	47.00
55.4682	32.00
55.4886	41.00
55.509	38.00
55.5294	32.00
55.5499	23.00
55.5703	36.00
55.5907	44.00
55.6111	38.00
55.6316	36.00
55.652	35.00
55.6724	40.00
55.6928	37.00
55.7133	39.00
55.7337	34.00
55.7541	41.00
55.7745	51.00
55.795	46.00
55.8154	43.00
55.8358	45.00
55.8562	42.00
55.8767	38.00
55.8971	37.00
55.9175	38.00
55.9379	50.00
55.9584	38.00
55.9788	71.00
55.9992	83.00
56.0196	106.00
56.0401	140.00
56.0605	97.00
56.0809	82.00
56.1013	60.00
56.1218	59.00
56.1422	67.00
56.1626	65.00
56.183	91.00
56.2034	91.00
56.2239	60.00
56.2443	39.00
56.2647	50.00
56.2851	39.00
56.3056	41.00
56.326	46.00
56.3464	54.00
56.3668	47.00
56.3873	30.00
56.4077	39.00
56.4281	51.00
56.4485	43.00
56.469	39.00
56.4894	56.00
56.5098	36.00
56.5302	39.00
56.5507	45.00
56.5711	41.00
56.5915	47.00
56.6119	43.00
56.6324	54.00
56.6528	61.00
56.6732	70.00
56.6936	92.00
56.7141	112.00
56.7345	159.00
56.7549	140.00
56.7753	84.00
56.7957	70.00
56.8162	62.00
56.8366	82.00
56.857	91.00
56.8774	104.00
56.8979	135.00
56.9183	110.00
56.9387	98.00
56.9591	78.00
56.9796	100.00
57	75.00
57.0204	78.00
57.0408	66.00
57.0613	63.00
57.0817	71.00
57.1021	56.00
57.1225	68.00
57.143	64.00
57.1634	65.00
57.1838	51.00
57.2042	63.00
57.2247	47.00
57.2451	41.00
57.2655	50.00
57.2859	43.00
57.3064	45.00
57.3268	52.00
57.3472	49.00
57.3676	59.00
57.388	50.00
57.4085	43.00
57.4289	27.00
57.4493	46.00
57.4697	33.00
57.4902	56.00
57.5106	37.00
57.531	41.00
57.5514	30.00
57.5719	33.00
57.5923	44.00
57.6127	46.00
57.6331	27.00
57.6536	36.00
57.674	34.00
57.6944	44.00
57.7148	38.00
57.7353	49.00
57.7557	40.00
57.7761	50.00
57.7965	52.00
57.817	46.00
57.8374	61.00
57.8578	67.00
57.8782	62.00
57.8987	40.00
57.9191	57.00
57.9395	45.00
57.9599	39.00
57.9804	37.00
58.0008	57.00
58.0212	43.00
58.0416	54.00
58.062	33.00
58.0825	42.00
58.1029	50.00
58.1233	40.00
58.1437	46.00
58.1642	46.00
58.1846	42.00
58.205	35.00
58.2254	36.00
58.2459	52.00
58.2663	64.00
58.2867	47.00
58.3071	41.00
58.3276	59.00
58.348	45.00
58.3684	49.00
58.3888	38.00
58.4093	52.00
58.4297	44.00
58.4501	50.00
58.4705	50.00
58.491	56.00
58.5114	58.00
58.5318	69.00
58.5522	73.00
58.5727	100.00
58.5931	92.00
58.6135	69.00
58.6339	69.00
58.6543	67.00
58.6748	55.00
58.6952	86.00
58.7156	90.00
58.736	85.00
58.7565	88.00
58.7769	69.00
58.7973	106.00
58.8177	117.00
58.8382	80.00
58.8586	81.00
58.879	131.00
58.8994	100.00
58.9199	90.00
58.9403	115.00
58.9607	127.00
58.9811	156.00
59.0016	147.00
59.022	145.00
59.0424	125.00
59.0628	127.00
59.0833	113.00
59.1037	100.00
59.1241	123.00
59.1445	118.00
59.165	130.00
59.1854	92.00
59.2058	112.00
59.2262	99.00
59.2467	91.00
59.2671	95.00
59.2875	88.00
59.3079	87.00
59.3283	103.00
59.3488	80.00
59.3692	72.00
59.3896	77.00
59.41	82.00
59.4305	75.00
59.4509	75.00
59.4713	89.00
59.4917	71.00
59.5122	89.00
59.5326	74.00
59.553	90.00
59.5734	68.00
59.5939	71.00
59.6143	99.00
59.6347	86.00
59.6551	82.00
59.6756	88.00
59.696	96.00
59.7164	102.00
59.7368	75.00
59.7573	107.00
59.7777	97.00
59.7981	101.00
59.8185	106.00
59.839	92.00
59.8594	119.00
59.8798	135.00
59.9002	140.00
59.9206	136.00
59.9411	141.00
59.9615	167.00
59.9819	159.00
60.0023	155.00
60.0228	135.00
60.0432	142.00
60.0636	136.00
60.084	137.00
60.1045	148.00
60.1249	132.00
60.1453	148.00
60.1657	160.00
60.1862	168.00
60.2066	157.00
60.227	157.00
60.2474	157.00
60.2679	129.00
60.2883	131.00
60.3087	131.00
60.3291	113.00
60.3496	124.00
60.37	128.00
60.3904	113.00
60.4108	122.00
60.4313	111.00
60.4517	107.00
60.4721	108.00
60.4925	126.00
60.513	106.00
60.5334	103.00
60.5538	104.00
60.5742	119.00
60.5946	103.00
60.6151	113.00
60.6355	108.00
60.6559	103.00
60.6763	104.00
60.6968	93.00
60.7172	132.00
60.7376	112.00
60.758	105.00
60.7785	101.00
60.7989	101.00
60.8193	89.00
60.8397	102.00
60.8602	84.00
60.8806	93.00
60.901	108.00
60.9214	97.00
60.9419	117.00
60.9623	104.00
60.9827	100.00
61.0031	127.00
61.0236	108.00
61.044	92.00
61.0644	99.00
61.0848	100.00
61.1053	84.00
61.1257	102.00
61.1461	121.00
61.1665	123.00
61.1869	100.00
61.2074	104.00
61.2278	107.00
61.2482	101.00
61.2686	99.00
61.2891	112.00
61.3095	86.00
61.3299	101.00
61.3503	112.00
61.3708	100.00
61.3912	102.00
61.4116	108.00
61.432	113.00
61.4525	95.00
61.4729	113.00
61.4933	135.00
61.5137	146.00
61.5342	119.00
61.5546	104.00
61.575	107.00
61.5954	100.00
61.6159	100.00
61.6363	116.00
61.6567	132.00
61.6771	128.00
61.6976	114.00
61.718	96.00
61.7384	101.00
61.7588	81.00
61.7793	87.00
61.7997	105.00
61.8201	153.00
61.8405	197.00
61.8609	217.00
61.8814	189.00
61.9018	145.00
61.9222	96.00
61.9426	99.00
61.9631	107.00
61.9835	123.00
62.0039	125.00
62.0243	147.00
62.0448	155.00
62.0652	98.00
62.0856	87.00
62.106	93.00
62.1265	79.00
62.1469	84.00
62.1673	76.00
62.1877	81.00
62.2082	76.00
62.2286	64.00
62.249	82.00
62.2694	66.00
62.2899	78.00
62.3103	81.00
62.3307	73.00
62.3511	83.00
62.3716	74.00
62.392	78.00
62.4124	76.00
62.4328	80.00
62.4532	83.00
62.4737	107.00
62.4941	106.00
62.5145	118.00
62.5349	128.00
62.5554	159.00
62.5758	201.00
62.5962	204.00
62.6166	264.00
62.6371	285.00
62.6575	307.00
62.6779	204.00
62.6983	190.00
62.7188	150.00
62.7392	134.00
62.7596	145.00
62.78	174.00
62.8005	193.00
62.8209	218.00
62.8413	171.00
62.8617	114.00
62.8822	102.00
62.9026	77.00
62.923	69.00
62.9434	76.00
62.9639	62.00
62.9843	72.00
63.0047	62.00
63.0251	72.00
63.0456	60.00
63.066	59.00
63.0864	56.00
63.1068	62.00
63.1272	58.00
63.1477	58.00
63.1681	59.00
63.1885	56.00
63.2089	44.00
63.2294	66.00
63.2498	49.00
63.2702	47.00
63.2906	61.00
63.3111	52.00
63.3315	53.00
63.3519	60.00
63.3723	59.00
63.3928	76.00
63.4132	50.00
63.4336	55.00
63.454	52.00
63.4745	61.00
63.4949	43.00
63.5153	53.00
63.5357	67.00
63.5562	59.00
63.5766	56.00
63.597	51.00
63.6174	64.00
63.6379	43.00
63.6583	48.00
63.6787	63.00
63.6991	46.00
63.7195	53.00
63.74	45.00
63.7604	50.00
63.7808	56.00
63.8012	56.00
63.8217	49.00
63.8421	51.00
63.8625	45.00
63.8829	70.00
63.9034	46.00
63.9238	61.00
63.9442	44.00
63.9646	51.00
63.9851	57.00
64.0055	43.00
64.0259	55.00
64.0463	44.00
64.0668	49.00
64.0872	50.00
64.1076	47.00
64.128	55.00
64.1485	51.00
64.1689	48.00
64.1893	75.00
64.2097	52.00
64.2302	51.00
64.2506	52.00
64.271	44.00
64.2914	58.00
64.3118	55.00
64.3323	50.00
64.3527	48.00
64.3731	44.00
64.3935	45.00
64.414	41.00
64.4344	41.00
64.4548	45.00
64.4752	36.00
64.4957	42.00
64.5161	46.00
64.5365	40.00
64.5569	41.00
64.5774	39.00
64.5978	61.00
64.6182	47.00
64.6386	37.00
64.6591	51.00
64.6795	70.00
64.6999	58.00
64.7203	43.00
64.7408	46.00
64.7612	45.00
64.7816	39.00
64.802	51.00
64.8225	46.00
64.8429	37.00
64.8633	45.00
64.8837	41.00
64.9042	51.00
64.9246	56.00
64.945	48.00
64.9654	37.00
64.9858	48.00
65.0063	30.00
65.0267	44.00
65.0471	38.00
65.0675	49.00
65.088	30.00
65.1084	27.00
65.1288	40.00
65.1492	31.00
65.1697	43.00
65.1901	39.00
65.2105	44.00
65.2309	33.00
65.2514	39.00
65.2718	41.00
65.2922	36.00
65.3126	33.00
65.3331	36.00
65.3535	33.00
65.3739	35.00
65.3943	35.00
65.4148	36.00
65.4352	36.00
65.4556	41.00
65.476	49.00
65.4965	40.00
65.5169	33.00
65.5373	34.00
65.5577	43.00
65.5781	34.00
65.5986	42.00
65.619	49.00
65.6394	39.00
65.6598	38.00
65.6803	44.00
65.7007	56.00
65.7211	45.00
65.7415	46.00
65.762	52.00
65.7824	46.00
65.8028	34.00
65.8232	51.00
65.8437	50.00
65.8641	36.00
65.8845	45.00
65.9049	45.00
65.9254	49.00
65.9458	58.00
65.9662	39.00
65.9866	53.00
66.0071	52.00
66.0275	36.00
66.0479	42.00
66.0683	32.00
66.0888	45.00
66.1092	29.00
66.1296	34.00
66.15	51.00
66.1705	40.00
66.1909	50.00
66.2113	40.00
66.2317	47.00
66.2521	47.00
66.2726	33.00
66.293	46.00
66.3134	43.00
66.3338	33.00
66.3543	47.00
66.3747	30.00
66.3951	30.00
66.4155	31.00
66.436	36.00
66.4564	35.00
66.4768	41.00
66.4972	31.00
66.5177	37.00
66.5381	36.00
66.5585	44.00
66.5789	42.00
66.5994	46.00
66.6198	34.00
66.6402	55.00
66.6606	40.00
66.6811	43.00
66.7015	35.00
66.7219	47.00
66.7423	50.00
66.7628	66.00
66.7832	72.00
66.8036	74.00
66.824	42.00
66.8444	50.00
66.8649	68.00
66.8853	73.00
66.9057	108.00
66.9261	121.00
66.9466	105.00
66.967	83.00
66.9874	94.00
67.0078	71.00
67.0283	53.00
67.0487	62.00
67.0691	67.00
67.0895	66.00
67.11	60.00
67.1304	68.00
67.1508	69.00
67.1712	63.00
67.1917	46.00
67.2121	51.00
67.2325	51.00
67.2529	60.00
67.2734	46.00
67.2938	69.00
67.3142	82.00
67.3346	85.00
67.3551	59.00
67.3755	49.00
67.3959	52.00
67.4163	50.00
67.4368	44.00
67.4572	45.00
67.4776	60.00
67.498	62.00
67.5184	62.00
67.5389	41.00
67.5593	35.00
67.5797	40.00
67.6001	45.00
67.6206	56.00
67.641	40.00
67.6614	43.00
67.6818	39.00
67.7023	47.00
67.7227	36.00
67.7431	34.00
67.7635	38.00
67.784	39.00
67.8044	30.00
67.8248	29.00
67.8452	48.00
67.8657	37.00
67.8861	42.00
67.9065	39.00
67.9269	31.00
67.9474	36.00
67.9678	40.00
67.9882	42.00
68.0086	32.00
68.0291	37.00
68.0495	33.00
68.0699	31.00
68.0903	50.00
68.1107	32.00
68.1312	32.00
68.1516	34.00
68.172	27.00
68.1924	38.00
68.2129	23.00
68.2333	28.00
68.2537	27.00
68.2741	29.00
68.2946	36.00
68.315	36.00
68.3354	31.00
68.3558	39.00
68.3763	47.00
68.3967	25.00
68.4171	35.00
68.4375	39.00
68.458	40.00
68.4784	40.00
68.4988	46.00
68.5192	34.00
68.5397	36.00
68.5601	40.00
68.5805	28.00
68.6009	25.00
68.6214	37.00
68.6418	40.00
68.6622	31.00
68.6826	36.00
68.7031	35.00
68.7235	41.00
68.7439	28.00
68.7643	33.00
68.7847	46.00
68.8052	41.00
68.8256	37.00
68.846	29.00
68.8664	36.00
68.8869	24.00
68.9073	32.00
68.9277	37.00
68.9481	47.00
68.9686	22.00
68.989	38.00
69.0094	29.00
69.0298	27.00
69.0503	53.00
69.0707	38.00
69.0911	30.00
69.1115	39.00
69.132	36.00
69.1524	32.00
69.1728	40.00
69.1932	49.00
69.2137	52.00
69.2341	44.00
69.2545	45.00
69.2749	39.00
69.2954	35.00
69.3158	55.00
69.3362	69.00
69.3566	79.00
69.377	93.00
69.3975	135.00
69.4179	112.00
69.4383	98.00
69.4587	71.00
69.4792	55.00
69.4996	47.00
69.52	46.00
69.5404	71.00
69.5609	81.00
69.5813	79.00
69.6017	118.00
69.6221	88.00
69.6426	79.00
69.663	88.00
69.6834	70.00
69.7038	51.00
69.7243	39.00
69.7447	54.00
69.7651	48.00
69.7855	44.00
69.806	53.00
69.8264	52.00
69.8468	69.00
69.8672	60.00
69.8877	45.00
69.9081	54.00
69.9285	49.00
69.9489	49.00
69.9694	54.00
69.9898	51.00
70.0102	45.00
