MS02BED
Wavelength = 1.54059
5	5.00
5.0204	9.00
5.0409	5.00
5.0613	8.00
5.0817	5.00
5.1021	5.00
5.1226	7.00
5.143	7.00
5.1634	7.00
5.1838	9.00
5.2042	7.00
5.2247	11.00
5.2451	8.00
5.2655	13.00
5.2859	8.00
5.3064	6.00
5.3268	10.00
5.3472	5.00
5.3676	7.00
5.3881	10.00
5.4085	10.00
5.4289	11.00
5.4493	8.00
5.4698	5.00
5.4902	5.00
5.5106	9.00
5.531	9.00
5.5515	3.00
5.5719	11.00
5.5923	5.00
5.6127	6.00
5.6332	8.00
5.6536	13.00
5.674	8.00
5.6944	8.00
5.7149	7.00
5.7353	8.00
5.7557	5.00
5.7761	7.00
5.7965	10.00
5.817	5.00
5.8374	10.00
5.8578	8.00
5.8782	4.00
5.8987	7.00
5.9191	9.00
5.9395	9.00
5.9599	7.00
5.9804	12.00
6.0008	5.00
6.0212	3.00
6.0416	8.00
6.0621	7.00
6.0825	4.00
6.1029	13.00
6.1233	12.00
6.1438	4.00
6.1642	10.00
6.1846	4.00
6.205	15.00
6.2255	8.00
6.2459	7.00
6.2663	9.00
6.2867	10.00
6.3072	6.00
6.3276	6.00
6.348	8.00
6.3684	9.00
6.3888	7.00
6.4093	12.00
6.4297	9.00
6.4501	6.00
6.4705	8.00
6.491	7.00
6.5114	6.00
6.5318	12.00
6.5522	9.00
6.5727	7.00
6.5931	5.00
6.6135	10.00
6.6339	6.00
6.6544	10.00
6.6748	8.00
6.6952	6.00
6.7156	6.00
6.7361	7.00
6.7565	10.00
6.7769	10.00
6.7973	13.00
6.8178	9.00
6.8382	4.00
6.8586	4.00
6.879	10.00
6.8995	5.00
6.9199	7.00
6.9403	10.00
6.9607	7.00
6.9812	9.00
7.0016	10.00
7.022	9.00
7.0424	5.00
7.0628	8.00
7.0833	10.00
7.1037	10.00
7.1241	8.00
7.1445	10.00
7.165	10.00
7.1854	8.00
7.2058	9.00
7.2262	4.00
7.2467	6.00
7.2671	10.00
7.2875	7.00
7.3079	7.00
7.3284	16.00
7.3488	8.00
7.3692	10.00
7.3896	10.00
7.4101	4.00
7.4305	8.00
7.4509	9.00
7.4713	3.00
7.4918	14.00
7.5122	6.00
7.5326	13.00
7.553	9.00
7.5735	10.00
7.5939	11.00
7.6143	8.00
7.6347	8.00
7.6551	9.00
7.6756	8.00
7.696	5.00
7.7164	12.00
7.7368	5.00
7.7573	10.00
7.7777	8.00
7.7981	7.00
7.8185	7.00
7.839	8.00
7.8594	7.00
7.8798	5.00
7.9002	8.00
7.9207	9.00
7.9411	7.00
7.9615	10.00
7.9819	8.00
8.0024	7.00
8.0228	9.00
8.0432	9.00
8.0636	10.00
8.0841	10.00
8.1045	7.00
8.1249	10.00
8.1453	10.00
8.1658	9.00
8.1862	5.00
8.2066	13.00
8.227	6.00
8.2475	10.00
8.2679	11.00
8.2883	12.00
8.3087	8.00
8.3291	10.00
8.3496	7.00
8.37	11.00
8.3904	9.00
8.4108	12.00
8.4313	8.00
8.4517	11.00
8.4721	10.00
8.4925	13.00
8.513	6.00
8.5334	9.00
8.5538	12.00
8.5742	11.00
8.5947	12.00
8.6151	9.00
8.6355	7.00
8.6559	6.00
8.6764	11.00
8.6968	5.00
8.7172	5.00
8.7376	8.00
8.7581	10.00
8.7785	7.00
8.7989	12.00
8.8193	8.00
8.8398	12.00
8.8602	11.00
8.8806	6.00
8.901	8.00
8.9214	8.00
8.9419	13.00
8.9623	8.00
8.9827	13.00
9.0031	4.00
9.0236	6.00
9.044	17.00
9.0644	8.00
9.0848	11.00
9.1053	12.00
9.1257	7.00
9.1461	9.00
9.1665	10.00
9.187	9.00
9.2074	6.00
9.2278	13.00
9.2482	16.00
9.2687	9.00
9.2891	9.00
9.3095	6.00
9.3299	14.00
9.3504	11.00
9.3708	6.00
9.3912	8.00
9.4116	13.00
9.4321	12.00
9.4525	9.00
9.4729	10.00
9.4933	8.00
9.5138	2.00
9.5342	9.00
9.5546	13.00
9.575	8.00
9.5954	9.00
9.6159	11.00
9.6363	9.00
9.6567	14.00
9.6771	9.00
9.6976	11.00
9.718	13.00
9.7384	11.00
9.7588	13.00
9.7793	14.00
9.7997	10.00
9.8201	11.00
9.8405	4.00
9.861	15.00
9.8814	14.00
9.9018	6.00
9.9222	8.00
9.9427	9.00
9.9631	6.00
9.9835	10.00
10.0039	11.00
10.0244	10.00
10.0448	7.00
10.0652	7.00
10.0856	7.00
10.1061	11.00
10.1265	9.00
10.1469	15.00
10.1673	12.00
10.1877	11.00
10.2082	9.00
10.2286	9.00
10.249	11.00
10.2694	5.00
10.2899	14.00
10.3103	13.00
10.3307	15.00
10.3511	10.00
10.3716	11.00
10.392	11.00
10.4124	17.00
10.4328	14.00
10.4533	13.00
10.4737	13.00
10.4941	13.00
10.5145	13.00
10.535	8.00
10.5554	15.00
10.5758	14.00
10.5962	13.00
10.6167	12.00
10.6371	13.00
10.6575	9.00
10.6779	9.00
10.6984	13.00
10.7188	14.00
10.7392	14.00
10.7596	11.00
10.7801	8.00
10.8005	8.00
10.8209	12.00
10.8413	14.00
10.8617	14.00
10.8822	10.00
10.9026	14.00
10.923	13.00
10.9434	20.00
10.9639	11.00
10.9843	13.00
11.0047	15.00
11.0251	15.00
11.0456	7.00
11.066	21.00
11.0864	12.00
11.1068	12.00
11.1273	13.00
11.1477	18.00
11.1681	8.00
11.1885	10.00
11.209	12.00
11.2294	11.00
11.2498	11.00
11.2702	13.00
11.2907	11.00
11.3111	16.00
11.3315	17.00
11.3519	10.00
11.3724	10.00
11.3928	13.00
11.4132	16.00
11.4336	9.00
11.454	14.00
11.4745	11.00
11.4949	13.00
11.5153	11.00
11.5357	14.00
11.5562	16.00
11.5766	9.00
11.597	20.00
11.6174	20.00
11.6379	14.00
11.6583	14.00
11.6787	14.00
11.6991	19.00
11.7196	15.00
11.74	13.00
11.7604	16.00
11.7808	15.00
11.8013	17.00
11.8217	13.00
11.8421	17.00
11.8625	11.00
11.883	20.00
11.9034	12.00
11.9238	17.00
11.9442	9.00
11.9647	17.00
11.9851	13.00
12.0055	14.00
12.0259	11.00
12.0464	22.00
12.0668	12.00
12.0872	11.00
12.1076	16.00
12.128	16.00
12.1485	16.00
12.1689	15.00
12.1893	20.00
12.2097	16.00
12.2302	16.00
12.2506	17.00
12.271	14.00
12.2914	21.00
12.3119	12.00
12.3323	9.00
12.3527	18.00
12.3731	10.00
12.3936	14.00
12.414	10.00
12.4344	10.00
12.4548	27.00
12.4753	17.00
12.4957	14.00
12.5161	14.00
12.5365	17.00
12.557	14.00
12.5774	7.00
12.5978	10.00
12.6182	17.00
12.6387	10.00
12.6591	13.00
12.6795	11.00
12.6999	13.00
12.7203	19.00
12.7408	16.00
12.7612	15.00
12.7816	19.00
12.802	20.00
12.8225	11.00
12.8429	19.00
12.8633	17.00
12.8837	13.00
12.9042	19.00
12.9246	10.00
12.945	19.00
12.9654	15.00
12.9859	20.00
13.0063	9.00
13.0267	15.00
13.0471	16.00
13.0676	10.00
13.088	10.00
13.1084	18.00
13.1288	17.00
13.1493	14.00
13.1697	15.00
13.1901	17.00
13.2105	13.00
13.231	9.00
13.2514	17.00
13.2718	22.00
13.2922	15.00
13.3126	13.00
13.3331	17.00
13.3535	15.00
13.3739	14.00
13.3943	17.00
13.4148	12.00
13.4352	11.00
13.4556	11.00
13.476	11.00
13.4965	12.00
13.5169	7.00
13.5373	19.00
13.5577	11.00
13.5782	12.00
13.5986	14.00
13.619	17.00
13.6394	14.00
13.6599	23.00
13.6803	14.00
13.7007	11.00
13.7211	26.00
13.7416	19.00
13.762	15.00
13.7824	15.00
13.8028	15.00
13.8233	14.00
13.8437	18.00
13.8641	14.00
13.8845	11.00
13.905	10.00
13.9254	10.00
13.9458	18.00
13.9662	12.00
13.9866	19.00
14.0071	13.00
14.0275	11.00
14.0479	15.00
14.0683	11.00
14.0888	13.00
14.1092	21.00
14.1296	17.00
14.15	9.00
14.1705	4.00
14.1909	23.00
14.2113	13.00
14.2317	14.00
14.2522	11.00
14.2726	17.00
14.293	12.00
14.3134	8.00
14.3339	12.00
14.3543	12.00
14.3747	13.00
14.3951	14.00
14.4156	16.00
14.436	14.00
14.4564	14.00
14.4768	15.00
14.4973	10.00
14.5177	23.00
14.5381	9.00
14.5585	15.00
14.5789	19.00
14.5994	15.00
14.6198	18.00
14.6402	15.00
14.6606	6.00
14.6811	12.00
14.7015	18.00
14.7219	16.00
14.7423	12.00
14.7628	17.00
14.7832	16.00
14.8036	11.00
14.824	11.00
14.8445	14.00
14.8649	13.00
14.8853	12.00
14.9057	15.00
14.9262	16.00
14.9466	16.00
14.967	9.00
14.9874	14.00
15.0079	7.00
15.0283	10.00
15.0487	20.00
15.0691	14.00
15.0896	17.00
15.11	11.00
15.1304	15.00
15.1508	8.00
15.1713	10.00
15.1917	16.00
15.2121	11.00
15.2325	14.00
15.2529	8.00
15.2734	16.00
15.2938	12.00
15.3142	20.00
15.3346	10.00
15.3551	22.00
15.3755	12.00
15.3959	8.00
15.4163	13.00
15.4368	14.00
15.4572	14.00
15.4776	16.00
15.498	11.00
15.5185	6.00
15.5389	8.00
15.5593	14.00
15.5797	16.00
15.6002	17.00
15.6206	10.00
15.641	15.00
15.6614	14.00
15.6819	14.00
15.7023	23.00
15.7227	13.00
15.7431	11.00
15.7636	18.00
15.784	13.00
15.8044	16.00
15.8248	15.00
15.8452	12.00
15.8657	10.00
15.8861	12.00
15.9065	7.00
15.9269	20.00
15.9474	5.00
15.9678	11.00
15.9882	14.00
16.0086	10.00
16.0291	9.00
16.0495	10.00
16.0699	13.00
16.0903	17.00
16.1108	18.00
16.1312	18.00
16.1516	13.00
16.172	21.00
16.1925	15.00
16.2129	19.00
16.2333	13.00
16.2537	13.00
16.2742	12.00
16.2946	9.00
16.315	9.00
16.3354	11.00
16.3559	19.00
16.3763	19.00
16.3967	16.00
16.4171	11.00
16.4376	16.00
16.458	17.00
16.4784	19.00
16.4988	15.00
16.5192	13.00
16.5397	18.00
16.5601	13.00
16.5805	11.00
16.6009	11.00
16.6214	12.00
16.6418	11.00
16.6622	7.00
16.6826	17.00
16.7031	16.00
16.7235	17.00
16.7439	13.00
16.7643	11.00
16.7848	14.00
16.8052	15.00
16.8256	14.00
16.846	12.00
16.8665	5.00
16.8869	9.00
16.9073	17.00
16.9277	15.00
16.9482	11.00
16.9686	13.00
16.989	7.00
17.0094	13.00
17.0299	14.00
17.0503	15.00
17.0707	22.00
17.0911	18.00
17.1115	21.00
17.132	18.00
17.1524	16.00
17.1728	10.00
17.1932	18.00
17.2137	20.00
17.2341	24.00
17.2545	32.00
17.2749	31.00
17.2954	53.00
17.3158	74.00
17.3362	106.00
17.3566	132.00
17.3771	115.00
17.3975	108.00
17.4179	70.00
17.4383	51.00
17.4588	34.00
17.4792	36.00
17.4996	38.00
17.52	24.00
17.5405	22.00
17.5609	22.00
17.5813	16.00
17.6017	11.00
17.6222	15.00
17.6426	15.00
17.663	13.00
17.6834	13.00
17.7039	12.00
17.7243	9.00
17.7447	17.00
17.7651	14.00
17.7855	17.00
17.806	11.00
17.8264	14.00
17.8468	12.00
17.8672	8.00
17.8877	13.00
17.9081	16.00
17.9285	10.00
17.9489	12.00
17.9694	11.00
17.9898	9.00
18.0102	15.00
18.0306	18.00
18.0511	7.00
18.0715	13.00
18.0919	14.00
18.1123	18.00
18.1328	14.00
18.1532	15.00
18.1736	12.00
18.194	24.00
18.2145	18.00
18.2349	12.00
18.2553	10.00
18.2757	17.00
18.2962	8.00
18.3166	21.00
18.337	13.00
18.3574	17.00
18.3778	12.00
18.3983	13.00
18.4187	15.00
18.4391	14.00
18.4595	12.00
18.48	13.00
18.5004	15.00
18.5208	11.00
18.5412	17.00
18.5617	7.00
18.5821	16.00
18.6025	15.00
18.6229	10.00
18.6434	14.00
18.6638	10.00
18.6842	8.00
18.7046	14.00
18.7251	13.00
18.7455	14.00
18.7659	13.00
18.7863	9.00
18.8068	14.00
18.8272	20.00
18.8476	5.00
18.868	17.00
18.8885	6.00
18.9089	15.00
18.9293	8.00
18.9497	14.00
18.9702	17.00
18.9906	8.00
19.011	16.00
19.0314	13.00
19.0518	9.00
19.0723	12.00
19.0927	13.00
19.1131	10.00
19.1335	5.00
19.154	15.00
19.1744	17.00
19.1948	9.00
19.2152	11.00
19.2357	13.00
19.2561	19.00
19.2765	14.00
19.2969	15.00
19.3174	14.00
19.3378	13.00
19.3582	9.00
19.3786	9.00
19.3991	13.00
19.4195	16.00
19.4399	18.00
19.4603	14.00
19.4808	14.00
19.5012	13.00
19.5216	10.00
19.542	9.00
19.5625	19.00
19.5829	14.00
19.6033	9.00
19.6237	12.00
19.6441	16.00
19.6646	17.00
19.685	13.00
19.7054	16.00
19.7258	13.00
19.7463	12.00
19.7667	12.00
19.7871	10.00
19.8075	11.00
19.828	10.00
19.8484	14.00
19.8688	17.00
19.8892	7.00
19.9097	17.00
19.9301	12.00
19.9505	7.00
19.9709	12.00
19.9914	29.00
20.0118	22.00
20.0322	12.00
20.0526	14.00
20.0731	15.00
20.0935	16.00
20.1139	14.00
20.1343	19.00
20.1548	15.00
20.1752	7.00
20.1956	9.00
20.216	15.00
20.2365	15.00
20.2569	15.00
20.2773	25.00
20.2977	15.00
20.3181	20.00
20.3386	13.00
20.359	10.00
20.3794	17.00
20.3998	12.00
20.4203	15.00
20.4407	10.00
20.4611	19.00
20.4815	19.00
20.502	23.00
20.5224	30.00
20.5428	21.00
20.5632	25.00
20.5837	25.00
20.6041	20.00
20.6245	16.00
20.6449	16.00
20.6654	18.00
20.6858	13.00
20.7062	16.00
20.7266	11.00
20.7471	13.00
20.7675	16.00
20.7879	8.00
20.8083	15.00
20.8288	18.00
20.8492	8.00
20.8696	21.00
20.89	16.00
20.9104	10.00
20.9309	10.00
20.9513	13.00
20.9717	14.00
20.9921	20.00
21.0126	17.00
21.033	11.00
21.0534	12.00
21.0738	14.00
21.0943	15.00
21.1147	11.00
21.1351	23.00
21.1555	17.00
21.176	12.00
21.1964	10.00
21.2168	20.00
21.2372	13.00
21.2577	13.00
21.2781	18.00
21.2985	16.00
21.3189	13.00
21.3394	22.00
21.3598	9.00
21.3802	12.00
21.4006	18.00
21.4211	14.00
21.4415	9.00
21.4619	16.00
21.4823	15.00
21.5027	11.00
21.5232	10.00
21.5436	11.00
21.564	9.00
21.5844	18.00
21.6049	16.00
21.6253	14.00
21.6457	13.00
21.6661	10.00
21.6866	14.00
21.707	15.00
21.7274	15.00
21.7478	15.00
21.7683	20.00
21.7887	10.00
21.8091	13.00
21.8295	27.00
21.85	14.00
21.8704	22.00
21.8908	9.00
21.9112	23.00
21.9317	21.00
21.9521	17.00
21.9725	9.00
21.9929	12.00
22.0134	15.00
22.0338	20.00
22.0542	12.00
22.0746	27.00
22.0951	12.00
22.1155	17.00
22.1359	21.00
22.1563	15.00
22.1767	19.00
22.1972	19.00
22.2176	20.00
22.238	20.00
22.2584	19.00
22.2789	19.00
22.2993	17.00
22.3197	24.00
22.3401	23.00
22.3606	26.00
22.381	21.00
22.4014	19.00
22.4218	22.00
22.4423	10.00
22.4627	20.00
22.4831	16.00
22.5035	12.00
22.524	20.00
22.5444	19.00
22.5648	21.00
22.5852	28.00
22.6057	28.00
22.6261	33.00
22.6465	27.00
22.6669	33.00
22.6874	37.00
22.7078	53.00
22.7282	51.00
22.7486	63.00
22.769	76.00
22.7895	103.00
22.8099	124.00
22.8303	195.00
22.8507	250.00
22.8712	320.00
22.8916	357.00
22.912	323.00
22.9324	279.00
22.9529	196.00
22.9733	178.00
22.9937	105.00
23.0141	71.00
23.0346	62.00
23.055	77.00
23.0754	43.00
23.0958	46.00
23.1163	36.00
23.1367	50.00
23.1571	33.00
23.1775	22.00
23.198	34.00
23.2184	26.00
23.2388	24.00
23.2592	26.00
23.2797	21.00
23.3001	11.00
23.3205	18.00
23.3409	22.00
23.3614	25.00
23.3818	20.00
23.4022	15.00
23.4226	22.00
23.443	19.00
23.4635	15.00
23.4839	25.00
23.5043	21.00
23.5247	22.00
23.5452	25.00
23.5656	18.00
23.586	27.00
23.6064	29.00
23.6269	25.00
23.6473	24.00
23.6677	23.00
23.6881	37.00
23.7086	36.00
23.729	24.00
23.7494	28.00
23.7698	39.00
23.7903	53.00
23.8107	66.00
23.8311	95.00
23.8515	112.00
23.872	116.00
23.8924	110.00
23.9128	85.00
23.9332	87.00
23.9537	78.00
23.9741	57.00
23.9945	37.00
24.0149	31.00
24.0353	37.00
24.0558	27.00
24.0762	37.00
24.0966	33.00
24.117	45.00
24.1375	39.00
24.1579	52.00
24.1783	30.00
24.1987	32.00
24.2192	41.00
24.2396	35.00
24.26	31.00
24.2804	26.00
24.3009	35.00
24.3213	21.00
24.3417	18.00
24.3621	18.00
24.3826	24.00
24.403	20.00
24.4234	18.00
24.4438	29.00
24.4643	23.00
24.4847	19.00
24.5051	18.00
24.5255	24.00
24.546	15.00
24.5664	20.00
24.5868	22.00
24.6072	11.00
24.6277	22.00
24.6481	19.00
24.6685	25.00
24.6889	19.00
24.7093	21.00
24.7298	25.00
24.7502	24.00
24.7706	17.00
24.791	24.00
24.8115	13.00
24.8319	14.00
24.8523	15.00
24.8727	15.00
24.8932	20.00
24.9136	12.00
24.934	18.00
24.9544	13.00
24.9749	21.00
24.9953	19.00
25.0157	19.00
25.0361	14.00
25.0566	24.00
25.077	16.00
25.0974	18.00
25.1178	20.00
25.1383	24.00
25.1587	14.00
25.1791	21.00
25.1995	17.00
25.22	17.00
25.2404	18.00
25.2608	30.00
25.2812	30.00
25.3016	24.00
25.3221	48.00
25.3425	48.00
25.3629	50.00
25.3833	66.00
25.4038	76.00
25.4242	96.00
25.4446	99.00
25.465	101.00
25.4855	119.00
25.5059	105.00
25.5263	111.00
25.5467	104.00
25.5672	101.00
25.5876	113.00
25.608	87.00
25.6284	83.00
25.6489	79.00
25.6693	41.00
25.6897	51.00
25.7101	40.00
25.7306	29.00
25.751	24.00
25.7714	31.00
25.7918	27.00
25.8123	21.00
25.8327	18.00
25.8531	17.00
25.8735	11.00
25.894	22.00
25.9144	23.00
25.9348	24.00
25.9552	17.00
25.9756	19.00
25.9961	31.00
26.0165	19.00
26.0369	26.00
26.0573	17.00
26.0778	26.00
26.0982	22.00
26.1186	21.00
26.139	14.00
26.1595	18.00
26.1799	14.00
26.2003	14.00
26.2207	15.00
26.2412	21.00
26.2616	16.00
26.282	25.00
26.3024	13.00
26.3229	21.00
26.3433	22.00
26.3637	24.00
26.3841	21.00
26.4046	15.00
26.425	23.00
26.4454	18.00
26.4658	13.00
26.4863	20.00
26.5067	25.00
26.5271	20.00
26.5475	16.00
26.5679	21.00
26.5884	18.00
26.6088	20.00
26.6292	17.00
26.6496	21.00
26.6701	16.00
26.6905	15.00
26.7109	19.00
26.7313	16.00
26.7518	17.00
26.7722	19.00
26.7926	16.00
26.813	16.00
26.8335	14.00
26.8539	9.00
26.8743	17.00
26.8947	18.00
26.9152	23.00
26.9356	22.00
26.956	11.00
26.9764	25.00
26.9969	23.00
27.0173	15.00
27.0377	11.00
27.0581	21.00
27.0786	22.00
27.099	21.00
27.1194	23.00
27.1398	19.00
27.1603	22.00
27.1807	26.00
27.2011	23.00
27.2215	21.00
27.2419	18.00
27.2624	22.00
27.2828	24.00
27.3032	16.00
27.3236	24.00
27.3441	19.00
27.3645	13.00
27.3849	22.00
27.4053	18.00
27.4258	14.00
27.4462	20.00
27.4666	21.00
27.487	24.00
27.5075	24.00
27.5279	29.00
27.5483	23.00
27.5687	28.00
27.5892	26.00
27.6096	24.00
27.63	24.00
27.6504	12.00
27.6709	18.00
27.6913	22.00
27.7117	13.00
27.7321	22.00
27.7526	16.00
27.773	15.00
27.7934	17.00
27.8138	20.00
27.8342	16.00
27.8547	23.00
27.8751	22.00
27.8955	15.00
27.9159	23.00
27.9364	23.00
27.9568	24.00
27.9772	22.00
27.9976	20.00
28.0181	18.00
28.0385	21.00
28.0589	16.00
28.0793	26.00
28.0998	17.00
28.1202	22.00
28.1406	20.00
28.161	27.00
28.1815	15.00
28.2019	15.00
28.2223	22.00
28.2427	19.00
28.2632	18.00
28.2836	22.00
28.304	16.00
28.3244	18.00
28.3449	20.00
28.3653	20.00
28.3857	22.00
28.4061	21.00
28.4265	22.00
28.447	22.00
28.4674	27.00
28.4878	18.00
28.5082	35.00
28.5287	31.00
28.5491	30.00
28.5695	31.00
28.5899	28.00
28.6104	15.00
28.6308	25.00
28.6512	12.00
28.6716	16.00
28.6921	19.00
28.7125	19.00
28.7329	19.00
28.7533	20.00
28.7738	21.00
28.7942	26.00
28.8146	26.00
28.835	18.00
28.8555	32.00
28.8759	22.00
28.8963	15.00
28.9167	24.00
28.9372	20.00
28.9576	21.00
28.978	13.00
28.9984	19.00
29.0189	24.00
29.0393	19.00
29.0597	23.00
29.0801	29.00
29.1005	32.00
29.121	26.00
29.1414	18.00
29.1618	18.00
29.1822	21.00
29.2027	25.00
29.2231	17.00
29.2435	35.00
29.2639	26.00
29.2844	24.00
29.3048	19.00
29.3252	20.00
29.3456	27.00
29.3661	31.00
29.3865	22.00
29.4069	33.00
29.4273	26.00
29.4478	24.00
29.4682	21.00
29.4886	27.00
29.509	23.00
29.5295	20.00
29.5499	40.00
29.5703	39.00
29.5907	37.00
29.6112	43.00
29.6316	58.00
29.652	42.00
29.6724	58.00
29.6928	57.00
29.7133	64.00
29.7337	82.00
29.7541	66.00
29.7745	89.00
29.795	113.00
29.8154	127.00
29.8358	127.00
29.8562	123.00
29.8767	104.00
29.8971	106.00
29.9175	109.00
29.9379	81.00
29.9584	65.00
29.9788	46.00
29.9992	48.00
30.0196	53.00
30.0401	38.00
30.0605	50.00
30.0809	40.00
30.1013	41.00
30.1218	38.00
30.1422	48.00
30.1626	35.00
30.183	29.00
30.2035	33.00
30.2239	35.00
30.2443	24.00
30.2647	51.00
30.2852	41.00
30.3056	35.00
30.326	41.00
30.3464	42.00
30.3668	28.00
30.3873	26.00
30.4077	34.00
30.4281	31.00
30.4485	28.00
30.469	27.00
30.4894	26.00
30.5098	27.00
30.5302	28.00
30.5507	25.00
30.5711	24.00
30.5915	19.00
30.6119	26.00
30.6324	24.00
30.6528	27.00
30.6732	20.00
30.6936	26.00
30.7141	23.00
30.7345	19.00
30.7549	27.00
30.7753	31.00
30.7958	28.00
30.8162	30.00
30.8366	27.00
30.857	44.00
30.8775	32.00
30.8979	29.00
30.9183	40.00
30.9387	29.00
30.9591	25.00
30.9796	28.00
31	16.00
31.0204	23.00
31.0408	20.00
31.0613	23.00
31.0817	16.00
31.1021	20.00
31.1225	26.00
31.143	25.00
31.1634	25.00
31.1838	29.00
31.2042	23.00
31.2247	22.00
31.2451	22.00
31.2655	20.00
31.2859	22.00
31.3064	23.00
31.3268	23.00
31.3472	25.00
31.3676	20.00
31.3881	29.00
31.4085	22.00
31.4289	26.00
31.4493	20.00
31.4698	26.00
31.4902	29.00
31.5106	15.00
31.531	23.00
31.5515	29.00
31.5719	21.00
31.5923	22.00
31.6127	23.00
31.6331	19.00
31.6536	27.00
31.674	22.00
31.6944	33.00
31.7148	32.00
31.7353	31.00
31.7557	24.00
31.7761	30.00
31.7965	22.00
31.817	24.00
31.8374	24.00
31.8578	36.00
31.8782	26.00
31.8987	39.00
31.9191	28.00
31.9395	39.00
31.9599	28.00
31.9804	33.00
32.0008	33.00
32.0212	47.00
32.0416	48.00
32.0621	48.00
32.0825	39.00
32.1029	50.00
32.1233	42.00
32.1438	63.00
32.1642	59.00
32.1846	77.00
32.205	97.00
32.2254	130.00
32.2459	183.00
32.2663	286.00
32.2867	359.00
32.3071	408.00
32.3276	374.00
32.348	354.00
32.3684	337.00
32.3888	297.00
32.4093	235.00
32.4297	213.00
32.4501	152.00
32.4705	111.00
32.491	87.00
32.5114	68.00
32.5318	60.00
32.5522	63.00
32.5727	59.00
32.5931	51.00
32.6135	41.00
32.6339	41.00
32.6544	35.00
32.6748	44.00
32.6952	37.00
32.7156	36.00
32.7361	44.00
32.7565	30.00
32.7769	37.00
32.7973	36.00
32.8178	33.00
32.8382	39.00
32.8586	33.00
32.879	32.00
32.8994	36.00
32.9199	42.00
32.9403	41.00
32.9607	45.00
32.9811	51.00
33.0016	48.00
33.022	39.00
33.0424	58.00
33.0628	62.00
33.0833	81.00
33.1037	82.00
33.1241	112.00
33.1445	112.00
33.165	119.00
33.1854	103.00
33.2058	109.00
33.2262	96.00
33.2467	87.00
33.2671	75.00
33.2875	65.00
33.3079	63.00
33.3284	62.00
33.3488	45.00
33.3692	43.00
33.3896	39.00
33.4101	28.00
33.4305	39.00
33.4509	30.00
33.4713	32.00
33.4917	25.00
33.5122	26.00
33.5326	26.00
33.553	32.00
33.5734	24.00
33.5939	22.00
33.6143	21.00
33.6347	25.00
33.6551	20.00
33.6756	20.00
33.696	22.00
33.7164	30.00
33.7368	26.00
33.7573	26.00
33.7777	22.00
33.7981	24.00
33.8185	24.00
33.839	23.00
33.8594	17.00
33.8798	24.00
33.9002	26.00
33.9207	19.00
33.9411	21.00
33.9615	21.00
33.9819	27.00
34.0024	30.00
34.0228	30.00
34.0432	24.00
34.0636	16.00
34.0841	27.00
34.1045	15.00
34.1249	24.00
34.1453	22.00
34.1657	29.00
34.1862	16.00
34.2066	21.00
34.227	22.00
34.2474	23.00
34.2679	25.00
34.2883	31.00
34.3087	21.00
34.3291	27.00
34.3496	34.00
34.37	25.00
34.3904	23.00
34.4108	23.00
34.4313	17.00
34.4517	22.00
34.4721	25.00
34.4925	23.00
34.513	27.00
34.5334	35.00
34.5538	32.00
34.5742	28.00
34.5947	26.00
34.6151	23.00
34.6355	30.00
34.6559	36.00
34.6764	35.00
34.6968	27.00
34.7172	29.00
34.7376	38.00
34.758	34.00
34.7785	34.00
34.7989	23.00
34.8193	27.00
34.8397	36.00
34.8602	35.00
34.8806	36.00
34.901	26.00
34.9214	33.00
34.9419	44.00
34.9623	31.00
34.9827	29.00
35.0031	39.00
35.0236	34.00
35.044	36.00
35.0644	47.00
35.0848	41.00
35.1053	38.00
35.1257	44.00
35.1461	32.00
35.1665	35.00
35.187	43.00
35.2074	41.00
35.2278	44.00
35.2482	51.00
35.2687	41.00
35.2891	57.00
35.3095	56.00
35.3299	69.00
35.3503	71.00
35.3708	76.00
35.3912	100.00
35.4116	99.00
35.432	121.00
35.4525	110.00
35.4729	148.00
35.4933	134.00
35.5137	139.00
35.5342	162.00
35.5546	180.00
35.575	188.00
35.5954	232.00
35.6159	320.00
35.6363	354.00
35.6567	445.00
35.6771	507.00
35.6976	483.00
35.718	495.00
35.7384	497.00
35.7588	436.00
35.7793	416.00
35.7997	355.00
35.8201	317.00
35.8405	227.00
35.861	192.00
35.8814	142.00
35.9018	143.00
35.9222	116.00
35.9427	106.00
35.9631	77.00
35.9835	97.00
36.0039	72.00
36.0243	76.00
36.0448	74.00
36.0652	69.00
36.0856	63.00
36.106	77.00
36.1265	62.00
36.1469	70.00
36.1673	48.00
36.1877	54.00
36.2082	77.00
36.2286	60.00
36.249	80.00
36.2694	69.00
36.2899	65.00
36.3103	86.00
36.3307	89.00
36.3511	100.00
36.3716	103.00
36.392	149.00
36.4124	175.00
36.4328	218.00
36.4533	292.00
36.4737	394.00
36.4941	464.00
36.5145	518.00
36.535	548.00
36.5554	529.00
36.5758	435.00
36.5962	451.00
36.6166	378.00
36.6371	319.00
36.6575	221.00
36.6779	188.00
36.6983	194.00
36.7188	121.00
36.7392	102.00
36.7596	101.00
36.78	70.00
36.8005	69.00
36.8209	69.00
36.8413	67.00
36.8617	59.00
36.8822	43.00
36.9026	43.00
36.923	37.00
36.9434	45.00
36.9639	35.00
36.9843	35.00
37.0047	29.00
37.0251	44.00
37.0456	44.00
37.066	42.00
37.0864	32.00
37.1068	20.00
37.1273	37.00
37.1477	33.00
37.1681	39.00
37.1885	31.00
37.209	25.00
37.2294	38.00
37.2498	24.00
37.2702	25.00
37.2906	35.00
37.3111	30.00
37.3315	24.00
37.3519	31.00
37.3723	31.00
37.3928	29.00
37.4132	25.00
37.4336	21.00
37.454	25.00
37.4745	22.00
37.4949	21.00
37.5153	24.00
37.5357	23.00
37.5562	19.00
37.5766	19.00
37.597	29.00
37.6174	24.00
37.6379	25.00
37.6583	17.00
37.6787	24.00
37.6991	24.00
37.7196	18.00
37.74	25.00
37.7604	26.00
37.7808	20.00
37.8013	30.00
37.8217	22.00
37.8421	31.00
37.8625	22.00
37.8829	37.00
37.9034	29.00
37.9238	24.00
37.9442	22.00
37.9646	25.00
37.9851	23.00
38.0055	27.00
38.0259	25.00
38.0463	27.00
38.0668	29.00
38.0872	30.00
38.1076	29.00
38.128	37.00
38.1485	35.00
38.1689	35.00
38.1893	26.00
38.2097	53.00
38.2302	60.00
38.2506	59.00
38.271	87.00
38.2914	99.00
38.3119	103.00
38.3323	81.00
38.3527	74.00
38.3731	73.00
38.3936	70.00
38.414	85.00
38.4344	54.00
38.4548	62.00
38.4753	46.00
38.4957	51.00
38.5161	39.00
38.5365	28.00
38.5569	51.00
38.5774	42.00
38.5978	33.00
38.6182	38.00
38.6386	35.00
38.6591	37.00
38.6795	38.00
38.6999	37.00
38.7203	53.00
38.7408	50.00
38.7612	54.00
38.7816	63.00
38.802	69.00
38.8225	78.00
38.8429	85.00
38.8633	74.00
38.8837	76.00
38.9042	56.00
38.9246	60.00
38.945	55.00
38.9654	42.00
38.9859	48.00
39.0063	41.00
39.0267	39.00
39.0471	31.00
39.0676	31.00
39.088	34.00
39.1084	28.00
39.1288	32.00
39.1492	33.00
39.1697	32.00
39.1901	21.00
39.2105	27.00
39.2309	30.00
39.2514	30.00
39.2718	29.00
39.2922	29.00
39.3126	31.00
39.3331	34.00
39.3535	36.00
39.3739	39.00
39.3943	35.00
39.4148	38.00
39.4352	40.00
39.4556	49.00
39.476	54.00
39.4965	67.00
39.5169	47.00
39.5373	67.00
39.5577	82.00
39.5782	87.00
39.5986	112.00
39.619	131.00
39.6394	195.00
39.6599	268.00
39.6803	253.00
39.7007	281.00
39.7211	251.00
39.7416	254.00
39.762	244.00
39.7824	241.00
39.8028	204.00
39.8232	159.00
39.8437	160.00
39.8641	142.00
39.8845	126.00
39.9049	92.00
39.9254	105.00
39.9458	107.00
39.9662	118.00
39.9866	150.00
40.0071	185.00
40.0275	218.00
40.0479	253.00
40.0683	254.00
40.0888	232.00
40.1092	193.00
40.1296	185.00
40.15	184.00
40.1705	177.00
40.1909	137.00
40.2113	110.00
40.2317	80.00
40.2522	74.00
40.2726	71.00
40.293	51.00
40.3134	44.00
40.3339	44.00
40.3543	48.00
40.3747	42.00
40.3951	32.00
40.4155	38.00
40.436	32.00
40.4564	31.00
40.4768	35.00
40.4972	30.00
40.5177	27.00
40.5381	34.00
40.5585	31.00
40.5789	31.00
40.5994	38.00
40.6198	31.00
40.6402	34.00
40.6606	28.00
40.6811	31.00
40.7015	48.00
40.7219	38.00
40.7423	27.00
40.7628	28.00
40.7832	33.00
40.8036	42.00
40.824	56.00
40.8445	48.00
40.8649	51.00
40.8853	52.00
40.9057	49.00
40.9262	46.00
40.9466	40.00
40.967	39.00
40.9874	39.00
41.0079	28.00
41.0283	30.00
41.0487	29.00
41.0691	35.00
41.0895	28.00
41.11	29.00
41.1304	25.00
41.1508	23.00
41.1712	34.00
41.1917	24.00
41.2121	27.00
41.2325	26.00
41.2529	27.00
41.2734	28.00
41.2938	27.00
41.3142	38.00
41.3346	20.00
41.3551	27.00
41.3755	27.00
41.3959	21.00
41.4163	23.00
41.4368	30.00
41.4572	26.00
41.4776	28.00
41.498	21.00
41.5185	24.00
41.5389	43.00
41.5593	32.00
41.5797	39.00
41.6002	31.00
41.6206	40.00
41.641	49.00
41.6614	55.00
41.6818	87.00
41.7023	82.00
41.7227	123.00
41.7431	114.00
41.7635	141.00
41.784	134.00
41.8044	127.00
41.8248	136.00
41.8452	118.00
41.8657	112.00
41.8861	97.00
41.9065	78.00
41.9269	61.00
41.9474	51.00
41.9678	51.00
41.9882	43.00
42.0086	37.00
42.0291	28.00
42.0495	32.00
42.0699	14.00
42.0903	36.00
42.1108	31.00
42.1312	27.00
42.1516	17.00
42.172	29.00
42.1925	25.00
42.2129	30.00
42.2333	32.00
42.2537	26.00
42.2742	23.00
42.2946	30.00
42.315	21.00
42.3354	26.00
42.3558	18.00
42.3763	38.00
42.3967	26.00
42.4171	26.00
42.4375	24.00
42.458	29.00
42.4784	17.00
42.4988	22.00
42.5192	20.00
42.5397	24.00
42.5601	20.00
42.5805	15.00
42.6009	22.00
42.6214	23.00
42.6418	21.00
42.6622	24.00
42.6826	24.00
42.7031	20.00
42.7235	24.00
42.7439	22.00
42.7643	15.00
42.7848	16.00
42.8052	31.00
42.8256	16.00
42.846	21.00
42.8665	11.00
42.8869	22.00
42.9073	19.00
42.9277	29.00
42.9481	23.00
42.9686	16.00
42.989	20.00
43.0094	17.00
43.0298	25.00
43.0503	26.00
43.0707	25.00
43.0911	29.00
43.1115	31.00
43.132	21.00
43.1524	25.00
43.1728	33.00
43.1932	29.00
43.2137	22.00
43.2341	19.00
43.2545	18.00
43.2749	23.00
43.2954	23.00
43.3158	16.00
43.3362	17.00
43.3566	21.00
43.3771	13.00
43.3975	19.00
43.4179	14.00
43.4383	14.00
43.4588	20.00
43.4792	25.00
43.4996	28.00
43.52	12.00
43.5404	21.00
43.5609	21.00
43.5813	19.00
43.6017	22.00
43.6221	15.00
43.6426	17.00
43.663	15.00
43.6834	17.00
43.7038	19.00
43.7243	14.00
43.7447	15.00
43.7651	18.00
43.7855	26.00
43.806	25.00
43.8264	25.00
43.8468	10.00
43.8672	23.00
43.8877	22.00
43.9081	14.00
43.9285	11.00
43.9489	21.00
43.9694	19.00
43.9898	24.00
44.0102	24.00
44.0306	24.00
44.0511	26.00
44.0715	16.00
44.0919	11.00
44.1123	17.00
44.1328	21.00
44.1532	26.00
44.1736	14.00
44.194	21.00
44.2144	22.00
44.2349	13.00
44.2553	27.00
44.2757	21.00
44.2961	28.00
44.3166	28.00
44.337	25.00
44.3574	26.00
44.3778	29.00
44.3983	36.00
44.4187	29.00
44.4391	25.00
44.4595	20.00
44.48	35.00
44.5004	27.00
44.5208	32.00
44.5412	36.00
44.5617	40.00
44.5821	50.00
44.6025	36.00
44.6229	46.00
44.6434	49.00
44.6638	33.00
44.6842	42.00
44.7046	36.00
44.7251	32.00
44.7455	34.00
44.7659	27.00
44.7863	23.00
44.8067	21.00
44.8272	28.00
44.8476	27.00
44.868	29.00
44.8884	23.00
44.9089	19.00
44.9293	17.00
44.9497	27.00
44.9701	25.00
44.9906	20.00
45.011	24.00
45.0314	22.00
45.0518	19.00
45.0723	28.00
45.0927	22.00
45.1131	19.00
45.1335	18.00
45.154	20.00
45.1744	27.00
45.1948	18.00
45.2152	23.00
45.2357	15.00
45.2561	16.00
45.2765	22.00
45.2969	19.00
45.3174	19.00
45.3378	17.00
45.3582	18.00
45.3786	16.00
45.3991	17.00
45.4195	19.00
45.4399	10.00
45.4603	16.00
45.4807	24.00
45.5012	18.00
45.5216	11.00
45.542	14.00
45.5624	12.00
45.5829	12.00
45.6033	17.00
45.6237	18.00
45.6441	23.00
45.6646	12.00
45.685	18.00
45.7054	17.00
45.7258	19.00
45.7463	18.00
45.7667	18.00
45.7871	19.00
45.8075	16.00
45.828	15.00
45.8484	19.00
45.8688	22.00
45.8892	15.00
45.9097	18.00
45.9301	16.00
45.9505	15.00
45.9709	22.00
45.9914	19.00
46.0118	19.00
46.0322	11.00
46.0526	10.00
46.073	13.00
46.0935	23.00
46.1139	20.00
46.1343	17.00
46.1547	22.00
46.1752	27.00
46.1956	21.00
46.216	12.00
46.2364	21.00
46.2569	21.00
46.2773	22.00
46.2977	23.00
46.3181	25.00
46.3386	23.00
46.359	19.00
46.3794	27.00
46.3998	22.00
46.4203	24.00
46.4407	21.00
46.4611	33.00
46.4815	27.00
46.502	36.00
46.5224	32.00
46.5428	39.00
46.5632	31.00
46.5837	29.00
46.6041	40.00
46.6245	30.00
46.6449	32.00
46.6654	34.00
46.6858	28.00
46.7062	34.00
46.7266	39.00
46.747	30.00
46.7675	37.00
46.7879	38.00
46.8083	37.00
46.8287	31.00
46.8492	27.00
46.8696	32.00
46.89	30.00
46.9104	23.00
46.9309	30.00
46.9513	26.00
46.9717	24.00
46.9921	27.00
47.0126	19.00
47.033	26.00
47.0534	21.00
47.0738	23.00
47.0943	15.00
47.1147	18.00
47.1351	23.00
47.1555	24.00
47.176	21.00
47.1964	17.00
47.2168	27.00
47.2372	23.00
47.2577	20.00
47.2781	15.00
47.2985	6.00
47.3189	19.00
47.3393	12.00
47.3598	17.00
47.3802	12.00
47.4006	9.00
47.421	22.00
47.4415	15.00
47.4619	13.00
47.4823	19.00
47.5027	21.00
47.5232	22.00
47.5436	13.00
47.564	17.00
47.5844	21.00
47.6049	15.00
47.6253	12.00
47.6457	23.00
47.6661	22.00
47.6866	15.00
47.707	14.00
47.7274	17.00
47.7478	12.00
47.7683	9.00
47.7887	15.00
47.8091	10.00
47.8295	12.00
47.85	18.00
47.8704	21.00
47.8908	15.00
47.9112	13.00
47.9317	17.00
47.9521	17.00
47.9725	25.00
47.9929	21.00
48.0133	15.00
48.0338	15.00
48.0542	27.00
48.0746	15.00
48.095	21.00
48.1155	20.00
48.1359	18.00
48.1563	26.00
48.1767	15.00
48.1972	17.00
48.2176	17.00
48.238	20.00
48.2584	23.00
48.2789	23.00
48.2993	27.00
48.3197	28.00
48.3401	36.00
48.3606	42.00
48.381	40.00
48.4014	56.00
48.4218	49.00
48.4423	67.00
48.4627	76.00
48.4831	58.00
48.5035	64.00
48.524	45.00
48.5444	54.00
48.5648	59.00
48.5852	51.00
48.6056	55.00
48.6261	43.00
48.6465	55.00
48.6669	36.00
48.6873	37.00
48.7078	39.00
48.7282	16.00
48.7486	21.00
48.769	38.00
48.7895	37.00
48.8099	36.00
48.8303	35.00
48.8507	28.00
48.8712	37.00
48.8916	34.00
48.912	39.00
48.9324	25.00
48.9529	25.00
48.9733	38.00
48.9937	27.00
49.0141	42.00
49.0346	26.00
49.055	39.00
49.0754	29.00
49.0958	28.00
49.1163	26.00
49.1367	27.00
49.1571	27.00
49.1775	42.00
49.198	38.00
49.2184	26.00
49.2388	32.00
49.2592	18.00
49.2796	34.00
49.3001	29.00
49.3205	24.00
49.3409	24.00
49.3613	37.00
49.3818	34.00
49.4022	43.00
49.4226	55.00
49.443	54.00
49.4635	62.00
49.4839	61.00
49.5043	53.00
49.5247	52.00
49.5452	48.00
49.5656	69.00
49.586	56.00
49.6064	58.00
49.6269	60.00
49.6473	42.00
49.6677	35.00
49.6881	37.00
49.7086	26.00
49.729	34.00
49.7494	28.00
49.7698	38.00
49.7903	34.00
49.8107	31.00
49.8311	23.00
49.8515	38.00
49.8719	30.00
49.8924	39.00
49.9128	26.00
49.9332	22.00
49.9536	28.00
49.9741	21.00
49.9945	29.00
50.0149	29.00
50.0353	24.00
50.0558	22.00
50.0762	25.00
50.0966	25.00
50.117	36.00
50.1375	19.00
50.1579	28.00
50.1783	28.00
50.1987	22.00
50.2192	30.00
50.2396	34.00
50.26	42.00
50.2804	27.00
50.3009	45.00
50.3213	40.00
50.3417	41.00
50.3621	38.00
50.3826	52.00
50.403	36.00
50.4234	34.00
50.4438	39.00
50.4642	37.00
50.4847	31.00
50.5051	36.00
50.5255	35.00
50.5459	19.00
50.5664	36.00
50.5868	26.00
50.6072	23.00
50.6276	20.00
50.6481	22.00
50.6685	23.00
50.6889	27.00
50.7093	26.00
50.7298	28.00
50.7502	35.00
50.7706	23.00
50.791	26.00
50.8115	37.00
50.8319	35.00
50.8523	40.00
50.8727	35.00
50.8932	42.00
50.9136	43.00
50.934	32.00
50.9544	47.00
50.9749	47.00
50.9953	53.00
51.0157	40.00
51.0361	46.00
51.0566	43.00
51.077	43.00
51.0974	28.00
51.1178	32.00
51.1382	29.00
51.1587	30.00
51.1791	37.00
51.1995	25.00
51.2199	27.00
51.2404	28.00
51.2608	23.00
51.2812	22.00
51.3016	26.00
51.3221	21.00
51.3425	28.00
51.3629	22.00
51.3833	29.00
51.4038	17.00
51.4242	30.00
51.4446	32.00
51.465	23.00
51.4855	21.00
51.5059	17.00
51.5263	23.00
51.5467	24.00
51.5672	21.00
51.5876	23.00
51.608	26.00
51.6284	36.00
51.6489	22.00
51.6693	27.00
51.6897	32.00
51.7101	29.00
51.7305	25.00
51.751	36.00
51.7714	28.00
51.7918	35.00
51.8122	37.00
51.8327	46.00
51.8531	44.00
51.8735	27.00
51.8939	44.00
51.9144	45.00
51.9348	55.00
51.9552	60.00
51.9756	67.00
51.9961	80.00
52.0165	87.00
52.0369	81.00
52.0573	101.00
52.0778	113.00
52.0982	132.00
52.1186	143.00
52.139	189.00
52.1595	234.00
52.1799	283.00
52.2003	342.00
52.2207	405.00
52.2412	391.00
52.2616	421.00
52.282	400.00
52.3024	363.00
52.3229	347.00
52.3433	322.00
52.3637	356.00
52.3841	305.00
52.4045	302.00
52.425	242.00
52.4454	269.00
52.4658	250.00
52.4862	234.00
52.5067	228.00
52.5271	217.00
52.5475	219.00
52.5679	199.00
52.5884	172.00
52.6088	151.00
52.6292	160.00
52.6496	128.00
52.6701	137.00
52.6905	132.00
52.7109	110.00
52.7313	105.00
52.7518	70.00
52.7722	113.00
52.7926	86.00
52.813	73.00
52.8335	95.00
52.8539	78.00
52.8743	68.00
52.8947	75.00
52.9152	61.00
52.9356	47.00
52.956	58.00
52.9764	57.00
52.9968	66.00
53.0173	55.00
53.0377	41.00
53.0581	42.00
53.0785	36.00
53.099	38.00
53.1194	46.00
53.1398	46.00
53.1602	38.00
53.1807	32.00
53.2011	29.00
53.2215	30.00
53.2419	44.00
53.2624	40.00
53.2828	28.00
53.3032	28.00
53.3236	44.00
53.3441	25.00
53.3645	38.00
53.3849	30.00
53.4053	36.00
53.4258	32.00
53.4462	47.00
53.4666	34.00
53.487	41.00
53.5075	37.00
53.5279	35.00
53.5483	26.00
53.5687	42.00
53.5892	41.00
53.6096	41.00
53.63	29.00
53.6504	39.00
53.6708	30.00
53.6913	28.00
53.7117	30.00
53.7321	35.00
53.7525	26.00
53.773	37.00
53.7934	34.00
53.8138	29.00
53.8342	42.00
53.8547	38.00
53.8751	36.00
53.8955	45.00
53.9159	44.00
53.9364	46.00
53.9568	56.00
53.9772	38.00
53.9976	50.00
54.0181	52.00
54.0385	72.00
54.0589	72.00
54.0793	67.00
54.0998	70.00
54.1202	75.00
54.1406	65.00
54.161	67.00
54.1815	61.00
54.2019	56.00
54.2223	53.00
54.2427	60.00
54.2631	60.00
54.2836	52.00
54.304	60.00
54.3244	51.00
54.3448	46.00
54.3653	44.00
54.3857	39.00
54.4061	36.00
54.4265	36.00
54.447	34.00
54.4674	43.00
54.4878	36.00
54.5082	42.00
54.5287	32.00
54.5491	42.00
54.5695	36.00
54.5899	37.00
54.6104	43.00
54.6308	45.00
54.6512	35.00
54.6716	31.00
54.6921	38.00
54.7125	51.00
54.7329	48.00
54.7533	63.00
54.7738	47.00
54.7942	48.00
54.8146	97.00
54.835	92.00
54.8555	110.00
54.8759	110.00
54.8963	104.00
54.9167	102.00
54.9371	95.00
54.9576	136.00
54.978	99.00
54.9984	106.00
55.0188	98.00
55.0393	84.00
55.0597	84.00
55.0801	72.00
55.1005	55.00
55.121	54.00
55.1414	54.00
55.1618	53.00
55.1822	40.00
55.2027	37.00
55.2231	37.00
55.2435	30.00
55.2639	42.00
55.2844	36.00
55.3048	33.00
55.3252	28.00
55.3456	22.00
55.3661	26.00
55.3865	34.00
55.4069	29.00
55.4273	31.00
55.4478	27.00
55.4682	29.00
55.4886	29.00
55.509	37.00
55.5294	32.00
55.5499	34.00
55.5703	35.00
55.5907	31.00
55.6111	38.00
55.6316	30.00
55.652	37.00
55.6724	34.00
55.6928	28.00
55.7133	29.00
55.7337	35.00
55.7541	28.00
55.7745	19.00
55.795	25.00
55.8154	36.00
55.8358	31.00
55.8562	46.00
55.8767	31.00
55.8971	35.00
55.9175	49.00
55.9379	36.00
55.9584	43.00
55.9788	49.00
55.9992	51.00
56.0196	52.00
56.0401	49.00
56.0605	60.00
56.0809	79.00
56.1013	114.00
56.1218	93.00
56.1422	117.00
56.1626	122.00
56.183	95.00
56.2034	130.00
56.2239	109.00
56.2443	119.00
56.2647	101.00
56.2851	106.00
56.3056	111.00
56.326	104.00
56.3464	83.00
56.3668	86.00
56.3873	85.00
56.4077	86.00
56.4281	69.00
56.4485	74.00
56.469	58.00
56.4894	38.00
56.5098	58.00
56.5302	60.00
56.5507	65.00
56.5711	53.00
56.5915	52.00
56.6119	56.00
56.6324	45.00
56.6528	58.00
56.6732	56.00
56.6936	78.00
56.7141	79.00
56.7345	93.00
56.7549	94.00
56.7753	110.00
56.7957	143.00
56.8162	119.00
56.8366	136.00
56.857	136.00
56.8774	148.00
56.8979	111.00
56.9183	126.00
56.9387	143.00
56.9591	128.00
56.9796	134.00
57	116.00
57.0204	115.00
57.0408	92.00
57.0613	90.00
57.0817	90.00
57.1021	79.00
57.1225	75.00
57.143	63.00
57.1634	45.00
57.1838	51.00
57.2042	64.00
57.2247	41.00
57.2451	44.00
57.2655	40.00
57.2859	38.00
57.3064	46.00
57.3268	44.00
57.3472	43.00
57.3676	29.00
57.388	43.00
57.4085	53.00
57.4289	52.00
57.4493	38.00
57.4697	46.00
57.4902	34.00
57.5106	47.00
57.531	43.00
57.5514	40.00
57.5719	51.00
57.5923	44.00
57.6127	46.00
57.6331	35.00
57.6536	44.00
57.674	45.00
57.6944	42.00
57.7148	35.00
57.7353	48.00
57.7557	49.00
57.7761	43.00
57.7965	43.00
57.817	44.00
57.8374	39.00
57.8578	44.00
57.8782	54.00
57.8987	45.00
57.9191	37.00
57.9395	68.00
57.9599	42.00
57.9804	40.00
58.0008	49.00
58.0212	42.00
58.0416	46.00
58.062	39.00
58.0825	47.00
58.1029	36.00
58.1233	49.00
58.1437	34.00
58.1642	38.00
58.1846	43.00
58.205	38.00
58.2254	44.00
58.2459	28.00
58.2663	27.00
58.2867	29.00
58.3071	37.00
58.3276	40.00
58.348	38.00
58.3684	39.00
58.3888	42.00
58.4093	46.00
58.4297	18.00
58.4501	35.00
58.4705	40.00
58.491	36.00
58.5114	28.00
58.5318	46.00
58.5522	42.00
58.5727	46.00
58.5931	57.00
58.6135	51.00
58.6339	63.00
58.6543	61.00
58.6748	81.00
58.6952	89.00
58.7156	82.00
58.736	101.00
58.7565	91.00
58.7769	82.00
58.7973	89.00
58.8177	85.00
58.8382	76.00
58.8586	74.00
58.879	92.00
58.8994	77.00
58.9199	59.00
58.9403	50.00
58.9607	53.00
58.9811	62.00
59.0016	64.00
59.022	45.00
59.0424	45.00
59.0628	39.00
59.0833	30.00
59.1037	39.00
59.1241	44.00
59.1445	31.00
59.165	29.00
59.1854	41.00
59.2058	25.00
59.2262	32.00
59.2467	30.00
59.2671	36.00
59.2875	25.00
59.3079	27.00
59.3283	33.00
59.3488	34.00
59.3692	20.00
59.3896	33.00
59.41	34.00
59.4305	31.00
59.4509	23.00
59.4713	31.00
59.4917	24.00
59.5122	25.00
59.5326	26.00
59.553	31.00
59.5734	43.00
59.5939	42.00
59.6143	25.00
59.6347	32.00
59.6551	30.00
59.6756	28.00
59.696	37.00
59.7164	23.00
59.7368	25.00
59.7573	38.00
59.7777	32.00
59.7981	25.00
59.8185	14.00
59.839	28.00
59.8594	25.00
59.8798	24.00
59.9002	33.00
59.9206	18.00
59.9411	35.00
59.9615	28.00
59.9819	23.00
60.0023	27.00
60.0228	31.00
60.0432	33.00
60.0636	26.00
60.084	29.00
60.1045	32.00
60.1249	22.00
60.1453	34.00
60.1657	22.00
60.1862	38.00
60.2066	46.00
60.227	31.00
60.2474	32.00
60.2679	33.00
60.2883	36.00
60.3087	26.00
60.3291	41.00
60.3496	30.00
60.37	38.00
60.3904	41.00
60.4108	35.00
60.4313	42.00
60.4517	41.00
60.4721	36.00
60.4925	36.00
60.513	35.00
60.5334	47.00
60.5538	34.00
60.5742	28.00
60.5946	31.00
60.6151	29.00
60.6355	41.00
60.6559	28.00
60.6763	34.00
60.6968	36.00
60.7172	38.00
60.7376	31.00
60.758	42.00
60.7785	29.00
60.7989	30.00
60.8193	34.00
60.8397	38.00
60.8602	32.00
60.8806	44.00
60.901	33.00
60.9214	55.00
60.9419	56.00
60.9623	47.00
60.9827	53.00
61.0031	58.00
61.0236	58.00
61.044	65.00
61.0644	67.00
61.0848	74.00
61.1053	69.00
61.1257	60.00
61.1461	75.00
61.1665	85.00
61.1869	88.00
61.2074	87.00
61.2278	69.00
61.2482	74.00
61.2686	73.00
61.2891	82.00
61.3095	79.00
61.3299	62.00
61.3503	77.00
61.3708	65.00
61.3912	77.00
61.4116	53.00
61.432	68.00
61.4525	61.00
61.4729	81.00
61.4933	71.00
61.5137	83.00
61.5342	64.00
61.5546	89.00
61.575	92.00
61.5954	97.00
61.6159	84.00
61.6363	89.00
61.6567	98.00
61.6771	95.00
61.6976	81.00
61.718	99.00
61.7384	80.00
61.7588	120.00
61.7793	127.00
61.7997	145.00
61.8201	123.00
61.8405	146.00
61.8609	142.00
61.8814	149.00
61.9018	180.00
61.9222	199.00
61.9426	213.00
61.9631	197.00
61.9835	203.00
62.0039	194.00
62.0243	204.00
62.0448	204.00
62.0652	191.00
62.0856	197.00
62.106	189.00
62.1265	180.00
62.1469	193.00
62.1673	159.00
62.1877	140.00
62.2082	153.00
62.2286	120.00
62.249	113.00
62.2694	113.00
62.2899	110.00
62.3103	116.00
62.3307	101.00
62.3511	105.00
62.3716	100.00
62.392	93.00
62.4124	101.00
62.4328	117.00
62.4532	123.00
62.4737	113.00
62.4941	112.00
62.5145	115.00
62.5349	131.00
62.5554	131.00
62.5758	139.00
62.5962	149.00
62.6166	145.00
62.6371	157.00
62.6575	183.00
62.6779	178.00
62.6983	221.00
62.7188	255.00
62.7392	277.00
62.7596	285.00
62.78	273.00
62.8005	305.00
62.8209	265.00
62.8413	268.00
62.8617	234.00
62.8822	272.00
62.9026	261.00
62.923	258.00
62.9434	234.00
62.9639	217.00
62.9843	176.00
63.0047	175.00
63.0251	151.00
63.0456	146.00
63.066	123.00
63.0864	124.00
63.1068	94.00
63.1272	92.00
63.1477	73.00
63.1681	69.00
63.1885	83.00
63.2089	78.00
63.2294	66.00
63.2498	65.00
63.2702	59.00
63.2906	47.00
63.3111	74.00
63.3315	43.00
63.3519	50.00
63.3723	64.00
63.3928	62.00
63.4132	51.00
63.4336	72.00
63.454	50.00
63.4745	69.00
63.4949	51.00
63.5153	52.00
63.5357	41.00
63.5562	54.00
63.5766	51.00
63.597	58.00
63.6174	40.00
63.6379	51.00
63.6583	46.00
63.6787	40.00
63.6991	56.00
63.7195	41.00
63.74	50.00
63.7604	54.00
63.7808	48.00
63.8012	49.00
63.8217	35.00
63.8421	50.00
63.8625	48.00
63.8829	54.00
63.9034	56.00
63.9238	62.00
63.9442	60.00
63.9646	60.00
63.9851	61.00
64.0055	60.00
64.0259	62.00
64.0463	61.00
64.0668	62.00
64.0872	52.00
64.1076	53.00
64.128	67.00
64.1485	52.00
64.1689	40.00
64.1893	54.00
64.2097	41.00
64.2302	43.00
64.2506	43.00
64.271	58.00
64.2914	35.00
64.3118	46.00
64.3323	48.00
64.3527	38.00
64.3731	34.00
64.3935	40.00
64.414	39.00
64.4344	35.00
64.4548	35.00
64.4752	35.00
64.4957	44.00
64.5161	39.00
64.5365	38.00
64.5569	37.00
64.5774	22.00
64.5978	39.00
64.6182	35.00
64.6386	37.00
64.6591	37.00
64.6795	28.00
64.6999	59.00
64.7203	40.00
64.7408	49.00
64.7612	46.00
64.7816	57.00
64.802	66.00
64.8225	51.00
64.8429	53.00
64.8633	44.00
64.8837	55.00
64.9042	41.00
64.9246	49.00
64.945	54.00
64.9654	46.00
64.9858	44.00
65.0063	45.00
65.0267	41.00
65.0471	42.00
65.0675	40.00
65.088	34.00
65.1084	38.00
65.1288	34.00
65.1492	32.00
65.1697	34.00
65.1901	29.00
65.2105	37.00
65.2309	26.00
65.2514	31.00
65.2718	24.00
65.2922	22.00
65.3126	23.00
65.3331	22.00
65.3535	38.00
65.3739	23.00
65.3943	29.00
65.4148	24.00
65.4352	41.00
65.4556	27.00
65.476	34.00
65.4965	48.00
65.5169	38.00
65.5373	36.00
65.5577	22.00
65.5781	30.00
65.5986	26.00
65.619	22.00
65.6394	31.00
65.6598	33.00
65.6803	28.00
65.7007	29.00
65.7211	40.00
65.7415	40.00
65.762	30.00
65.7824	30.00
65.8028	22.00
65.8232	22.00
65.8437	25.00
65.8641	26.00
65.8845	36.00
65.9049	32.00
65.9254	21.00
65.9458	25.00
65.9662	36.00
65.9866	23.00
66.0071	32.00
66.0275	23.00
66.0479	29.00
66.0683	33.00
66.0888	32.00
66.1092	25.00
66.1296	31.00
66.15	25.00
66.1705	33.00
66.1909	35.00
66.2113	34.00
66.2317	46.00
66.2521	35.00
66.2726	34.00
66.293	30.00
66.3134	30.00
66.3338	41.00
66.3543	32.00
66.3747	25.00
66.3951	33.00
66.4155	22.00
66.436	29.00
66.4564	26.00
66.4768	32.00
66.4972	21.00
66.5177	26.00
66.5381	46.00
66.5585	37.00
66.5789	20.00
66.5994	30.00
66.6198	36.00
66.6402	34.00
66.6606	40.00
66.6811	34.00
66.7015	47.00
66.7219	44.00
66.7423	46.00
66.7628	56.00
66.7832	68.00
66.8036	71.00
66.824	82.00
66.8444	101.00
66.8649	85.00
66.8853	98.00
66.9057	82.00
66.9261	83.00
66.9466	85.00
66.967	101.00
66.9874	126.00
67.0078	104.00
67.0283	112.00
67.0487	128.00
67.0691	116.00
67.0895	114.00
67.11	96.00
67.1304	131.00
67.1508	114.00
67.1712	88.00
67.1917	95.00
67.2121	91.00
67.2325	100.00
67.2529	88.00
67.2734	90.00
67.2938	104.00
67.3142	95.00
67.3346	88.00
67.3551	106.00
67.3755	80.00
67.3959	70.00
67.4163	79.00
67.4368	70.00
67.4572	72.00
67.4776	80.00
67.498	75.00
67.5184	60.00
67.5389	74.00
67.5593	74.00
67.5797	60.00
67.6001	59.00
67.6206	53.00
67.641	56.00
67.6614	42.00
67.6818	42.00
67.7023	44.00
67.7227	41.00
67.7431	36.00
67.7635	31.00
67.784	43.00
67.8044	51.00
67.8248	23.00
67.8452	36.00
67.8657	39.00
67.8861	25.00
67.9065	38.00
67.9269	33.00
67.9474	31.00
67.9678	23.00
67.9882	32.00
68.0086	29.00
68.0291	16.00
68.0495	31.00
68.0699	46.00
68.0903	31.00
68.1107	23.00
68.1312	30.00
68.1516	32.00
68.172	30.00
68.1924	22.00
68.2129	37.00
68.2333	31.00
68.2537	27.00
68.2741	13.00
68.2946	33.00
68.315	32.00
68.3354	27.00
68.3558	36.00
68.3763	40.00
68.3967	34.00
68.4171	36.00
68.4375	32.00
68.458	34.00
68.4784	32.00
68.4988	31.00
68.5192	28.00
68.5397	27.00
68.5601	32.00
68.5805	28.00
68.6009	31.00
68.6214	34.00
68.6418	35.00
68.6622	35.00
68.6826	33.00
68.7031	28.00
68.7235	32.00
68.7439	34.00
68.7643	35.00
68.7847	37.00
68.8052	32.00
68.8256	31.00
68.846	27.00
68.8664	36.00
68.8869	31.00
68.9073	26.00
68.9277	42.00
68.9481	37.00
68.9686	37.00
68.989	29.00
69.0094	33.00
69.0298	50.00
69.0503	38.00
69.0707	44.00
69.0911	38.00
69.1115	48.00
69.132	34.00
69.1524	53.00
69.1728	38.00
69.1932	48.00
69.2137	46.00
69.2341	49.00
69.2545	56.00
69.2749	66.00
69.2954	63.00
69.3158	67.00
69.3362	72.00
69.3566	74.00
69.377	87.00
69.3975	118.00
69.4179	133.00
69.4383	133.00
69.4587	136.00
69.4792	164.00
69.4996	149.00
69.52	135.00
69.5404	135.00
69.5609	132.00
69.5813	136.00
69.6017	145.00
69.6221	132.00
69.6426	143.00
69.663	141.00
69.6834	164.00
69.7038	168.00
69.7243	138.00
69.7447	141.00
69.7651	115.00
69.7855	121.00
69.806	108.00
69.8264	99.00
69.8468	83.00
69.8672	96.00
69.8877	82.00
69.9081	78.00
69.9285	82.00
69.9489	83.00
69.9694	61.00
69.9898	66.00
70.0102	50.00
