MS43BRED
Wavelength = 1.54059
5	8.00
5.0204	4.00
5.0409	5.00
5.0613	3.00
5.0817	4.00
5.1021	7.00
5.1226	6.00
5.143	8.00
5.1634	7.00
5.1838	7.00
5.2042	5.00
5.2247	4.00
5.2451	12.00
5.2655	9.00
5.2859	8.00
5.3064	12.00
5.3268	4.00
5.3472	9.00
5.3676	5.00
5.3881	5.00
5.4085	7.00
5.4289	7.00
5.4493	8.00
5.4698	11.00
5.4902	4.00
5.5106	8.00
5.531	9.00
5.5515	8.00
5.5719	8.00
5.5923	3.00
5.6127	8.00
5.6332	6.00
5.6536	9.00
5.674	7.00
5.6944	7.00
5.7149	7.00
5.7353	9.00
5.7557	15.00
5.7761	6.00
5.7965	7.00
5.817	6.00
5.8374	14.00
5.8578	11.00
5.8782	11.00
5.8987	8.00
5.9191	8.00
5.9395	12.00
5.9599	9.00
5.9804	14.00
6.0008	6.00
6.0212	10.00
6.0416	7.00
6.0621	9.00
6.0825	6.00
6.1029	8.00
6.1233	9.00
6.1438	1.00
6.1642	11.00
6.1846	9.00
6.205	14.00
6.2255	5.00
6.2459	7.00
6.2663	10.00
6.2867	10.00
6.3072	8.00
6.3276	7.00
6.348	6.00
6.3684	6.00
6.3888	12.00
6.4093	8.00
6.4297	10.00
6.4501	8.00
6.4705	6.00
6.491	18.00
6.5114	11.00
6.5318	12.00
6.5522	6.00
6.5727	10.00
6.5931	3.00
6.6135	4.00
6.6339	10.00
6.6544	10.00
6.6748	10.00
6.6952	12.00
6.7156	9.00
6.7361	7.00
6.7565	7.00
6.7769	7.00
6.7973	7.00
6.8178	7.00
6.8382	10.00
6.8586	10.00
6.879	10.00
6.8995	6.00
6.9199	8.00
6.9403	11.00
6.9607	11.00
6.9812	6.00
7.0016	7.00
7.022	7.00
7.0424	13.00
7.0628	9.00
7.0833	6.00
7.1037	11.00
7.1241	9.00
7.1445	7.00
7.165	16.00
7.1854	4.00
7.2058	6.00
7.2262	8.00
7.2467	4.00
7.2671	13.00
7.2875	7.00
7.3079	7.00
7.3284	9.00
7.3488	7.00
7.3692	7.00
7.3896	5.00
7.4101	7.00
7.4305	8.00
7.4509	4.00
7.4713	10.00
7.4918	7.00
7.5122	11.00
7.5326	11.00
7.553	10.00
7.5735	11.00
7.5939	10.00
7.6143	6.00
7.6347	6.00
7.6551	9.00
7.6756	15.00
7.696	8.00
7.7164	12.00
7.7368	8.00
7.7573	8.00
7.7777	8.00
7.7981	8.00
7.8185	10.00
7.839	8.00
7.8594	10.00
7.8798	7.00
7.9002	12.00
7.9207	8.00
7.9411	10.00
7.9615	8.00
7.9819	13.00
8.0024	7.00
8.0228	10.00
8.0432	7.00
8.0636	9.00
8.0841	3.00
8.1045	6.00
8.1249	12.00
8.1453	19.00
8.1658	15.00
8.1862	9.00
8.2066	8.00
8.227	4.00
8.2475	7.00
8.2679	9.00
8.2883	9.00
8.3087	14.00
8.3291	5.00
8.3496	9.00
8.37	11.00
8.3904	7.00
8.4108	9.00
8.4313	8.00
8.4517	9.00
8.4721	5.00
8.4925	9.00
8.513	11.00
8.5334	14.00
8.5538	11.00
8.5742	10.00
8.5947	11.00
8.6151	10.00
8.6355	9.00
8.6559	7.00
8.6764	9.00
8.6968	7.00
8.7172	9.00
8.7376	6.00
8.7581	4.00
8.7785	10.00
8.7989	7.00
8.8193	14.00
8.8398	10.00
8.8602	8.00
8.8806	16.00
8.901	15.00
8.9214	14.00
8.9419	9.00
8.9623	13.00
8.9827	7.00
9.0031	8.00
9.0236	10.00
9.044	7.00
9.0644	13.00
9.0848	9.00
9.1053	13.00
9.1257	12.00
9.1461	8.00
9.1665	16.00
9.187	15.00
9.2074	8.00
9.2278	10.00
9.2482	12.00
9.2687	9.00
9.2891	8.00
9.3095	13.00
9.3299	11.00
9.3504	7.00
9.3708	5.00
9.3912	10.00
9.4116	11.00
9.4321	19.00
9.4525	10.00
9.4729	6.00
9.4933	12.00
9.5138	9.00
9.5342	12.00
9.5546	14.00
9.575	8.00
9.5954	16.00
9.6159	12.00
9.6363	10.00
9.6567	15.00
9.6771	8.00
9.6976	10.00
9.718	9.00
9.7384	15.00
9.7588	10.00
9.7793	8.00
9.7997	12.00
9.8201	6.00
9.8405	7.00
9.861	22.00
9.8814	8.00
9.9018	6.00
9.9222	5.00
9.9427	11.00
9.9631	11.00
9.9835	12.00
10.0039	9.00
10.0244	12.00
10.0448	11.00
10.0652	12.00
10.0856	11.00
10.1061	8.00
10.1265	12.00
10.1469	10.00
10.1673	8.00
10.1877	19.00
10.2082	6.00
10.2286	10.00
10.249	7.00
10.2694	7.00
10.2899	16.00
10.3103	9.00
10.3307	11.00
10.3511	10.00
10.3716	12.00
10.392	7.00
10.4124	11.00
10.4328	15.00
10.4533	12.00
10.4737	7.00
10.4941	10.00
10.5145	12.00
10.535	11.00
10.5554	11.00
10.5758	16.00
10.5962	13.00
10.6167	6.00
10.6371	12.00
10.6575	12.00
10.6779	12.00
10.6984	10.00
10.7188	14.00
10.7392	11.00
10.7596	12.00
10.7801	17.00
10.8005	15.00
10.8209	14.00
10.8413	7.00
10.8617	11.00
10.8822	18.00
10.9026	13.00
10.923	18.00
10.9434	16.00
10.9639	8.00
10.9843	13.00
11.0047	15.00
11.0251	19.00
11.0456	9.00
11.066	10.00
11.0864	18.00
11.1068	16.00
11.1273	10.00
11.1477	17.00
11.1681	9.00
11.1885	9.00
11.209	18.00
11.2294	10.00
11.2498	9.00
11.2702	17.00
11.2907	12.00
11.3111	12.00
11.3315	9.00
11.3519	9.00
11.3724	18.00
11.3928	12.00
11.4132	16.00
11.4336	5.00
11.454	15.00
11.4745	12.00
11.4949	9.00
11.5153	14.00
11.5357	7.00
11.5562	9.00
11.5766	15.00
11.597	13.00
11.6174	11.00
11.6379	3.00
11.6583	19.00
11.6787	12.00
11.6991	11.00
11.7196	10.00
11.74	14.00
11.7604	10.00
11.7808	10.00
11.8013	16.00
11.8217	12.00
11.8421	19.00
11.8625	11.00
11.883	8.00
11.9034	11.00
11.9238	14.00
11.9442	10.00
11.9647	12.00
11.9851	14.00
12.0055	18.00
12.0259	17.00
12.0464	19.00
12.0668	11.00
12.0872	8.00
12.1076	11.00
12.128	15.00
12.1485	7.00
12.1689	15.00
12.1893	8.00
12.2097	14.00
12.2302	15.00
12.2506	8.00
12.271	7.00
12.2914	13.00
12.3119	13.00
12.3323	13.00
12.3527	13.00
12.3731	16.00
12.3936	15.00
12.414	9.00
12.4344	21.00
12.4548	21.00
12.4753	10.00
12.4957	13.00
12.5161	20.00
12.5365	14.00
12.557	14.00
12.5774	8.00
12.5978	15.00
12.6182	13.00
12.6387	13.00
12.6591	16.00
12.6795	14.00
12.6999	17.00
12.7203	16.00
12.7408	17.00
12.7612	21.00
12.7816	17.00
12.802	17.00
12.8225	10.00
12.8429	16.00
12.8633	12.00
12.8837	13.00
12.9042	15.00
12.9246	22.00
12.945	14.00
12.9654	8.00
12.9859	13.00
13.0063	15.00
13.0267	14.00
13.0471	12.00
13.0676	12.00
13.088	13.00
13.1084	15.00
13.1288	10.00
13.1493	13.00
13.1697	19.00
13.1901	16.00
13.2105	23.00
13.231	20.00
13.2514	16.00
13.2718	16.00
13.2922	17.00
13.3126	15.00
13.3331	16.00
13.3535	16.00
13.3739	7.00
13.3943	16.00
13.4148	19.00
13.4352	16.00
13.4556	16.00
13.476	21.00
13.4965	17.00
13.5169	21.00
13.5373	17.00
13.5577	10.00
13.5782	11.00
13.5986	15.00
13.619	11.00
13.6394	14.00
13.6599	17.00
13.6803	11.00
13.7007	17.00
13.7211	13.00
13.7416	18.00
13.762	10.00
13.7824	16.00
13.8028	19.00
13.8233	14.00
13.8437	12.00
13.8641	9.00
13.8845	13.00
13.905	11.00
13.9254	18.00
13.9458	15.00
13.9662	13.00
13.9866	19.00
14.0071	19.00
14.0275	13.00
14.0479	17.00
14.0683	14.00
14.0888	10.00
14.1092	14.00
14.1296	17.00
14.15	19.00
14.1705	16.00
14.1909	14.00
14.2113	23.00
14.2317	12.00
14.2522	12.00
14.2726	11.00
14.293	6.00
14.3134	13.00
14.3339	16.00
14.3543	11.00
14.3747	14.00
14.3951	17.00
14.4156	11.00
14.436	16.00
14.4564	12.00
14.4768	14.00
14.4973	13.00
14.5177	15.00
14.5381	15.00
14.5585	19.00
14.5789	15.00
14.5994	16.00
14.6198	13.00
14.6402	12.00
14.6606	6.00
14.6811	10.00
14.7015	15.00
14.7219	8.00
14.7423	12.00
14.7628	12.00
14.7832	10.00
14.8036	15.00
14.824	20.00
14.8445	11.00
14.8649	14.00
14.8853	12.00
14.9057	13.00
14.9262	14.00
14.9466	21.00
14.967	5.00
14.9874	17.00
15.0079	12.00
15.0283	12.00
15.0487	15.00
15.0691	21.00
15.0896	10.00
15.11	19.00
15.1304	13.00
15.1508	12.00
15.1713	10.00
15.1917	6.00
15.2121	12.00
15.2325	18.00
15.2529	17.00
15.2734	10.00
15.2938	15.00
15.3142	14.00
15.3346	8.00
15.3551	10.00
15.3755	11.00
15.3959	10.00
15.4163	14.00
15.4368	12.00
15.4572	8.00
15.4776	12.00
15.498	15.00
15.5185	13.00
15.5389	17.00
15.5593	12.00
15.5797	15.00
15.6002	14.00
15.6206	13.00
15.641	21.00
15.6614	13.00
15.6819	11.00
15.7023	16.00
15.7227	10.00
15.7431	11.00
15.7636	9.00
15.784	14.00
15.8044	13.00
15.8248	12.00
15.8452	11.00
15.8657	7.00
15.8861	14.00
15.9065	11.00
15.9269	13.00
15.9474	7.00
15.9678	17.00
15.9882	18.00
16.0086	14.00
16.0291	14.00
16.0495	10.00
16.0699	18.00
16.0903	13.00
16.1108	12.00
16.1312	11.00
16.1516	8.00
16.172	12.00
16.1925	18.00
16.2129	6.00
16.2333	10.00
16.2537	15.00
16.2742	19.00
16.2946	9.00
16.315	17.00
16.3354	8.00
16.3559	9.00
16.3763	10.00
16.3967	16.00
16.4171	8.00
16.4376	9.00
16.458	14.00
16.4784	13.00
16.4988	20.00
16.5192	19.00
16.5397	17.00
16.5601	13.00
16.5805	16.00
16.6009	9.00
16.6214	10.00
16.6418	15.00
16.6622	16.00
16.6826	8.00
16.7031	13.00
16.7235	10.00
16.7439	13.00
16.7643	13.00
16.7848	6.00
16.8052	14.00
16.8256	14.00
16.846	14.00
16.8665	17.00
16.8869	16.00
16.9073	11.00
16.9277	19.00
16.9482	16.00
16.9686	13.00
16.989	12.00
17.0094	11.00
17.0299	13.00
17.0503	15.00
17.0707	19.00
17.0911	9.00
17.1115	18.00
17.132	12.00
17.1524	15.00
17.1728	15.00
17.1932	11.00
17.2137	9.00
17.2341	24.00
17.2545	30.00
17.2749	38.00
17.2954	37.00
17.3158	54.00
17.3362	92.00
17.3566	113.00
17.3771	99.00
17.3975	76.00
17.4179	47.00
17.4383	35.00
17.4588	26.00
17.4792	20.00
17.4996	17.00
17.52	20.00
17.5405	14.00
17.5609	18.00
17.5813	14.00
17.6017	25.00
17.6222	12.00
17.6426	12.00
17.663	15.00
17.6834	18.00
17.7039	17.00
17.7243	11.00
17.7447	18.00
17.7651	10.00
17.7855	14.00
17.806	11.00
17.8264	9.00
17.8468	6.00
17.8672	10.00
17.8877	10.00
17.9081	9.00
17.9285	11.00
17.9489	12.00
17.9694	12.00
17.9898	11.00
18.0102	9.00
18.0306	12.00
18.0511	18.00
18.0715	14.00
18.0919	13.00
18.1123	13.00
18.1328	14.00
18.1532	13.00
18.1736	12.00
18.194	16.00
18.2145	13.00
18.2349	13.00
18.2553	10.00
18.2757	13.00
18.2962	6.00
18.3166	15.00
18.337	16.00
18.3574	12.00
18.3778	19.00
18.3983	14.00
18.4187	13.00
18.4391	15.00
18.4595	13.00
18.48	7.00
18.5004	10.00
18.5208	12.00
18.5412	10.00
18.5617	11.00
18.5821	9.00
18.6025	9.00
18.6229	11.00
18.6434	16.00
18.6638	12.00
18.6842	10.00
18.7046	8.00
18.7251	12.00
18.7455	17.00
18.7659	11.00
18.7863	14.00
18.8068	7.00
18.8272	13.00
18.8476	15.00
18.868	9.00
18.8885	12.00
18.9089	6.00
18.9293	9.00
18.9497	10.00
18.9702	13.00
18.9906	9.00
19.011	14.00
19.0314	9.00
19.0518	16.00
19.0723	9.00
19.0927	7.00
19.1131	10.00
19.1335	10.00
19.154	21.00
19.1744	13.00
19.1948	10.00
19.2152	13.00
19.2357	16.00
19.2561	12.00
19.2765	15.00
19.2969	21.00
19.3174	18.00
19.3378	9.00
19.3582	12.00
19.3786	10.00
19.3991	13.00
19.4195	13.00
19.4399	12.00
19.4603	12.00
19.4808	12.00
19.5012	10.00
19.5216	15.00
19.542	10.00
19.5625	11.00
19.5829	14.00
19.6033	11.00
19.6237	22.00
19.6441	14.00
19.6646	17.00
19.685	15.00
19.7054	11.00
19.7258	16.00
19.7463	15.00
19.7667	26.00
19.7871	12.00
19.8075	19.00
19.828	14.00
19.8484	15.00
19.8688	15.00
19.8892	19.00
19.9097	24.00
19.9301	20.00
19.9505	26.00
19.9709	19.00
19.9914	13.00
20.0118	16.00
20.0322	17.00
20.0526	16.00
20.0731	14.00
20.0935	17.00
20.1139	24.00
20.1343	19.00
20.1548	15.00
20.1752	24.00
20.1956	16.00
20.216	8.00
20.2365	14.00
20.2569	11.00
20.2773	23.00
20.2977	18.00
20.3181	14.00
20.3386	12.00
20.359	16.00
20.3794	12.00
20.3998	14.00
20.4203	9.00
20.4407	9.00
20.4611	24.00
20.4815	12.00
20.502	14.00
20.5224	20.00
20.5428	10.00
20.5632	19.00
20.5837	22.00
20.6041	24.00
20.6245	21.00
20.6449	13.00
20.6654	9.00
20.6858	11.00
20.7062	17.00
20.7266	12.00
20.7471	15.00
20.7675	19.00
20.7879	17.00
20.8083	14.00
20.8288	9.00
20.8492	13.00
20.8696	12.00
20.89	15.00
20.9104	17.00
20.9309	19.00
20.9513	16.00
20.9717	13.00
20.9921	13.00
21.0126	8.00
21.033	13.00
21.0534	11.00
21.0738	16.00
21.0943	17.00
21.1147	14.00
21.1351	16.00
21.1555	8.00
21.176	9.00
21.1964	14.00
21.2168	16.00
21.2372	14.00
21.2577	20.00
21.2781	17.00
21.2985	14.00
21.3189	9.00
21.3394	13.00
21.3598	14.00
21.3802	17.00
21.4006	11.00
21.4211	11.00
21.4415	21.00
21.4619	12.00
21.4823	18.00
21.5027	17.00
21.5232	12.00
21.5436	9.00
21.564	14.00
21.5844	16.00
21.6049	17.00
21.6253	8.00
21.6457	6.00
21.6661	18.00
21.6866	9.00
21.707	15.00
21.7274	11.00
21.7478	11.00
21.7683	16.00
21.7887	11.00
21.8091	13.00
21.8295	16.00
21.85	9.00
21.8704	11.00
21.8908	12.00
21.9112	15.00
21.9317	12.00
21.9521	13.00
21.9725	19.00
21.9929	25.00
22.0134	13.00
22.0338	14.00
22.0542	17.00
22.0746	18.00
22.0951	18.00
22.1155	14.00
22.1359	15.00
22.1563	9.00
22.1767	16.00
22.1972	20.00
22.2176	20.00
22.238	9.00
22.2584	14.00
22.2789	15.00
22.2993	14.00
22.3197	14.00
22.3401	15.00
22.3606	21.00
22.381	17.00
22.4014	13.00
22.4218	22.00
22.4423	20.00
22.4627	19.00
22.4831	24.00
22.5035	12.00
22.524	23.00
22.5444	18.00
22.5648	17.00
22.5852	24.00
22.6057	20.00
22.6261	29.00
22.6465	27.00
22.6669	29.00
22.6874	27.00
22.7078	31.00
22.7282	35.00
22.7486	35.00
22.769	59.00
22.7895	81.00
22.8099	105.00
22.8303	159.00
22.8507	261.00
22.8712	269.00
22.8916	269.00
22.912	218.00
22.9324	175.00
22.9529	146.00
22.9733	93.00
22.9937	86.00
23.0141	76.00
23.0346	63.00
23.055	44.00
23.0754	39.00
23.0958	30.00
23.1163	36.00
23.1367	22.00
23.1571	30.00
23.1775	25.00
23.198	18.00
23.2184	25.00
23.2388	19.00
23.2592	30.00
23.2797	20.00
23.3001	10.00
23.3205	21.00
23.3409	15.00
23.3614	17.00
23.3818	18.00
23.4022	17.00
23.4226	15.00
23.443	13.00
23.4635	25.00
23.4839	23.00
23.5043	21.00
23.5247	17.00
23.5452	23.00
23.5656	16.00
23.586	20.00
23.6064	23.00
23.6269	30.00
23.6473	17.00
23.6677	29.00
23.6881	14.00
23.7086	33.00
23.729	31.00
23.7494	28.00
23.7698	33.00
23.7903	48.00
23.8107	52.00
23.8311	98.00
23.8515	102.00
23.872	113.00
23.8924	96.00
23.9128	79.00
23.9332	76.00
23.9537	45.00
23.9741	38.00
23.9945	32.00
24.0149	28.00
24.0353	37.00
24.0558	34.00
24.0762	33.00
24.0966	29.00
24.117	29.00
24.1375	48.00
24.1579	31.00
24.1783	19.00
24.1987	20.00
24.2192	26.00
24.2396	22.00
24.26	27.00
24.2804	23.00
24.3009	22.00
24.3213	28.00
24.3417	23.00
24.3621	16.00
24.3826	21.00
24.403	15.00
24.4234	18.00
24.4438	14.00
24.4643	22.00
24.4847	19.00
24.5051	20.00
24.5255	20.00
24.546	18.00
24.5664	16.00
24.5868	22.00
24.6072	17.00
24.6277	21.00
24.6481	25.00
24.6685	13.00
24.6889	14.00
24.7093	18.00
24.7298	14.00
24.7502	22.00
24.7706	17.00
24.791	24.00
24.8115	15.00
24.8319	16.00
24.8523	13.00
24.8727	17.00
24.8932	17.00
24.9136	10.00
24.934	20.00
24.9544	14.00
24.9749	17.00
24.9953	14.00
25.0157	21.00
25.0361	20.00
25.0566	24.00
25.077	16.00
25.0974	21.00
25.1178	14.00
25.1383	16.00
25.1587	17.00
25.1791	21.00
25.1995	24.00
25.22	9.00
25.2404	26.00
25.2608	25.00
25.2812	17.00
25.3016	19.00
25.3221	35.00
25.3425	40.00
25.3629	46.00
25.3833	66.00
25.4038	81.00
25.4242	94.00
25.4446	89.00
25.465	92.00
25.4855	85.00
25.5059	88.00
25.5263	108.00
25.5467	113.00
25.5672	102.00
25.5876	86.00
25.608	86.00
25.6284	73.00
25.6489	55.00
25.6693	51.00
25.6897	27.00
25.7101	30.00
25.7306	25.00
25.751	23.00
25.7714	27.00
25.7918	24.00
25.8123	23.00
25.8327	24.00
25.8531	18.00
25.8735	23.00
25.894	15.00
25.9144	30.00
25.9348	21.00
25.9552	27.00
25.9756	11.00
25.9961	9.00
26.0165	15.00
26.0369	21.00
26.0573	21.00
26.0778	15.00
26.0982	13.00
26.1186	18.00
26.139	19.00
26.1595	20.00
26.1799	23.00
26.2003	14.00
26.2207	16.00
26.2412	14.00
26.2616	17.00
26.282	21.00
26.3024	23.00
26.3229	21.00
26.3433	17.00
26.3637	19.00
26.3841	10.00
26.4046	17.00
26.425	18.00
26.4454	12.00
26.4658	16.00
26.4863	12.00
26.5067	8.00
26.5271	14.00
26.5475	16.00
26.5679	28.00
26.5884	26.00
26.6088	18.00
26.6292	18.00
26.6496	21.00
26.6701	28.00
26.6905	25.00
26.7109	28.00
26.7313	15.00
26.7518	27.00
26.7722	17.00
26.7926	22.00
26.813	21.00
26.8335	22.00
26.8539	19.00
26.8743	26.00
26.8947	25.00
26.9152	12.00
26.9356	19.00
26.956	26.00
26.9764	21.00
26.9969	20.00
27.0173	26.00
27.0377	14.00
27.0581	19.00
27.0786	15.00
27.099	20.00
27.1194	18.00
27.1398	13.00
27.1603	14.00
27.1807	21.00
27.2011	20.00
27.2215	13.00
27.2419	27.00
27.2624	21.00
27.2828	17.00
27.3032	14.00
27.3236	15.00
27.3441	21.00
27.3645	26.00
27.3849	16.00
27.4053	23.00
27.4258	18.00
27.4462	22.00
27.4666	29.00
27.487	28.00
27.5075	36.00
27.5279	43.00
27.5483	40.00
27.5687	49.00
27.5892	57.00
27.6096	46.00
27.63	60.00
27.6504	84.00
27.6709	78.00
27.6913	73.00
27.7117	50.00
27.7321	49.00
27.7526	46.00
27.773	22.00
27.7934	20.00
27.8138	16.00
27.8342	30.00
27.8547	16.00
27.8751	13.00
27.8955	32.00
27.9159	31.00
27.9364	26.00
27.9568	18.00
27.9772	29.00
27.9976	27.00
28.0181	27.00
28.0385	20.00
28.0589	25.00
28.0793	17.00
28.0998	30.00
28.1202	35.00
28.1406	53.00
28.161	71.00
28.1815	71.00
28.2019	44.00
28.2223	50.00
28.2427	55.00
28.2632	40.00
28.2836	38.00
28.304	37.00
28.3244	34.00
28.3449	30.00
28.3653	35.00
28.3857	24.00
28.4061	27.00
28.4265	22.00
28.447	22.00
28.4674	23.00
28.4878	16.00
28.5082	21.00
28.5287	15.00
28.5491	15.00
28.5695	27.00
28.5899	21.00
28.6104	24.00
28.6308	20.00
28.6512	26.00
28.6716	28.00
28.6921	32.00
28.7125	25.00
28.7329	17.00
28.7533	22.00
28.7738	10.00
28.7942	19.00
28.8146	13.00
28.835	16.00
28.8555	17.00
28.8759	22.00
28.8963	25.00
28.9167	18.00
28.9372	19.00
28.9576	16.00
28.978	17.00
28.9984	22.00
29.0189	25.00
29.0393	18.00
29.0597	19.00
29.0801	19.00
29.1005	29.00
29.121	24.00
29.1414	22.00
29.1618	29.00
29.1822	22.00
29.2027	22.00
29.2231	14.00
29.2435	16.00
29.2639	23.00
29.2844	13.00
29.3048	18.00
29.3252	26.00
29.3456	21.00
29.3661	19.00
29.3865	26.00
29.4069	24.00
29.4273	19.00
29.4478	25.00
29.4682	24.00
29.4886	27.00
29.509	30.00
29.5295	24.00
29.5499	32.00
29.5703	28.00
29.5907	49.00
29.6112	46.00
29.6316	55.00
29.652	62.00
29.6724	74.00
29.6928	79.00
29.7133	87.00
29.7337	61.00
29.7541	100.00
29.7745	112.00
29.795	156.00
29.8154	177.00
29.8358	185.00
29.8562	227.00
29.8767	222.00
29.8971	216.00
29.9175	225.00
29.9379	148.00
29.9584	145.00
29.9788	100.00
29.9992	88.00
30.0196	60.00
30.0401	58.00
30.0605	47.00
30.0809	41.00
30.1013	38.00
30.1218	45.00
30.1422	34.00
30.1626	45.00
30.183	42.00
30.2035	46.00
30.2239	55.00
30.2443	53.00
30.2647	43.00
30.2852	62.00
30.3056	57.00
30.326	72.00
30.3464	87.00
30.3668	104.00
30.3873	104.00
30.4077	84.00
30.4281	63.00
30.4485	65.00
30.469	51.00
30.4894	52.00
30.5098	30.00
30.5302	41.00
30.5507	26.00
30.5711	30.00
30.5915	18.00
30.6119	29.00
30.6324	31.00
30.6528	28.00
30.6732	23.00
30.6936	28.00
30.7141	34.00
30.7345	28.00
30.7549	28.00
30.7753	39.00
30.7958	39.00
30.8162	46.00
30.8366	55.00
30.857	75.00
30.8775	67.00
30.8979	87.00
30.9183	76.00
30.9387	86.00
30.9591	72.00
30.9796	66.00
31	81.00
31.0204	58.00
31.0408	67.00
31.0613	110.00
31.0817	118.00
31.1021	93.00
31.1225	70.00
31.143	57.00
31.1634	60.00
31.1838	56.00
31.2042	35.00
31.2247	34.00
31.2451	23.00
31.2655	25.00
31.2859	35.00
31.3064	22.00
31.3268	16.00
31.3472	23.00
31.3676	21.00
31.3881	19.00
31.4085	23.00
31.4289	24.00
31.4493	20.00
31.4698	31.00
31.4902	18.00
31.5106	27.00
31.531	28.00
31.5515	20.00
31.5719	24.00
31.5923	21.00
31.6127	35.00
31.6331	24.00
31.6536	19.00
31.674	22.00
31.6944	32.00
31.7148	29.00
31.7353	29.00
31.7557	21.00
31.7761	28.00
31.7965	25.00
31.817	32.00
31.8374	25.00
31.8578	23.00
31.8782	32.00
31.8987	26.00
31.9191	20.00
31.9395	25.00
31.9599	19.00
31.9804	19.00
32.0008	28.00
32.0212	33.00
32.0416	25.00
32.0621	42.00
32.0825	38.00
32.1029	28.00
32.1233	54.00
32.1438	53.00
32.1642	51.00
32.1846	71.00
32.205	94.00
32.2254	130.00
32.2459	214.00
32.2663	355.00
32.2867	386.00
32.3071	386.00
32.3276	312.00
32.348	277.00
32.3684	320.00
32.3888	239.00
32.4093	192.00
32.4297	130.00
32.4501	112.00
32.4705	94.00
32.491	72.00
32.5114	50.00
32.5318	46.00
32.5522	40.00
32.5727	48.00
32.5931	33.00
32.6135	47.00
32.6339	36.00
32.6544	35.00
32.6748	31.00
32.6952	27.00
32.7156	43.00
32.7361	24.00
32.7565	37.00
32.7769	19.00
32.7973	24.00
32.8178	34.00
32.8382	38.00
32.8586	33.00
32.879	30.00
32.8994	37.00
32.9199	30.00
32.9403	30.00
32.9607	22.00
32.9811	37.00
33.0016	30.00
33.022	31.00
33.0424	49.00
33.0628	36.00
33.0833	51.00
33.1037	57.00
33.1241	68.00
33.1445	72.00
33.165	69.00
33.1854	66.00
33.2058	78.00
33.2262	65.00
33.2467	60.00
33.2671	49.00
33.2875	44.00
33.3079	34.00
33.3284	34.00
33.3488	43.00
33.3692	25.00
33.3896	24.00
33.4101	34.00
33.4305	20.00
33.4509	33.00
33.4713	19.00
33.4917	30.00
33.5122	25.00
33.5326	17.00
33.553	26.00
33.5734	20.00
33.5939	14.00
33.6143	16.00
33.6347	21.00
33.6551	19.00
33.6756	25.00
33.696	23.00
33.7164	16.00
33.7368	24.00
33.7573	37.00
33.7777	26.00
33.7981	24.00
33.8185	27.00
33.839	27.00
33.8594	33.00
33.8798	28.00
33.9002	11.00
33.9207	19.00
33.9411	22.00
33.9615	19.00
33.9819	20.00
34.0024	18.00
34.0228	18.00
34.0432	16.00
34.0636	18.00
34.0841	11.00
34.1045	25.00
34.1249	21.00
34.1453	24.00
34.1657	21.00
34.1862	30.00
34.2066	23.00
34.227	17.00
34.2474	26.00
34.2679	17.00
34.2883	23.00
34.3087	13.00
34.3291	21.00
34.3496	18.00
34.37	20.00
34.3904	22.00
34.4108	20.00
34.4313	20.00
34.4517	19.00
34.4721	30.00
34.4925	26.00
34.513	20.00
34.5334	29.00
34.5538	26.00
34.5742	25.00
34.5947	22.00
34.6151	28.00
34.6355	31.00
34.6559	30.00
34.6764	32.00
34.6968	29.00
34.7172	25.00
34.7376	32.00
34.758	47.00
34.7785	32.00
34.7989	31.00
34.8193	29.00
34.8397	42.00
34.8602	37.00
34.8806	47.00
34.901	46.00
34.9214	56.00
34.9419	52.00
34.9623	49.00
34.9827	77.00
35.0031	79.00
35.0236	61.00
35.044	70.00
35.0644	68.00
35.0848	48.00
35.1053	60.00
35.1257	46.00
35.1461	50.00
35.1665	37.00
35.187	48.00
35.2074	54.00
35.2278	56.00
35.2482	47.00
35.2687	53.00
35.2891	56.00
35.3095	48.00
35.3299	61.00
35.3503	79.00
35.3708	58.00
35.3912	77.00
35.4116	93.00
35.432	110.00
35.4525	168.00
35.4729	193.00
35.4933	193.00
35.5137	197.00
35.5342	195.00
35.5546	209.00
35.575	230.00
35.5954	280.00
35.6159	296.00
35.6363	368.00
35.6567	478.00
35.6771	554.00
35.6976	531.00
35.718	455.00
35.7384	476.00
35.7588	490.00
35.7793	441.00
35.7997	371.00
35.8201	274.00
35.8405	224.00
35.861	200.00
35.8814	161.00
35.9018	148.00
35.9222	116.00
35.9427	105.00
35.9631	88.00
35.9835	84.00
36.0039	64.00
36.0243	57.00
36.0448	83.00
36.0652	68.00
36.0856	73.00
36.106	53.00
36.1265	59.00
36.1469	58.00
36.1673	61.00
36.1877	49.00
36.2082	65.00
36.2286	59.00
36.249	60.00
36.2694	65.00
36.2899	90.00
36.3103	78.00
36.3307	93.00
36.3511	107.00
36.3716	131.00
36.392	145.00
36.4124	175.00
36.4328	239.00
36.4533	323.00
36.4737	468.00
36.4941	481.00
36.5145	443.00
36.535	437.00
36.5554	396.00
36.5758	442.00
36.5962	360.00
36.6166	304.00
36.6371	237.00
36.6575	188.00
36.6779	157.00
36.6983	130.00
36.7188	122.00
36.7392	102.00
36.7596	98.00
36.78	62.00
36.8005	76.00
36.8209	41.00
36.8413	45.00
36.8617	47.00
36.8822	39.00
36.9026	47.00
36.923	46.00
36.9434	32.00
36.9639	38.00
36.9843	41.00
37.0047	27.00
37.0251	46.00
37.0456	36.00
37.066	28.00
37.0864	31.00
37.1068	24.00
37.1273	30.00
37.1477	34.00
37.1681	30.00
37.1885	33.00
37.209	30.00
37.2294	31.00
37.2498	32.00
37.2702	30.00
37.2906	23.00
37.3111	27.00
37.3315	29.00
37.3519	24.00
37.3723	30.00
37.3928	20.00
37.4132	32.00
37.4336	23.00
37.454	24.00
37.4745	18.00
37.4949	21.00
37.5153	21.00
37.5357	24.00
37.5562	16.00
37.5766	26.00
37.597	20.00
37.6174	28.00
37.6379	21.00
37.6583	26.00
37.6787	27.00
37.6991	20.00
37.7196	35.00
37.74	32.00
37.7604	23.00
37.7808	19.00
37.8013	21.00
37.8217	28.00
37.8421	33.00
37.8625	18.00
37.8829	24.00
37.9034	19.00
37.9238	28.00
37.9442	13.00
37.9646	19.00
37.9851	24.00
38.0055	23.00
38.0259	29.00
38.0463	39.00
38.0668	27.00
38.0872	26.00
38.1076	32.00
38.128	29.00
38.1485	20.00
38.1689	40.00
38.1893	32.00
38.2097	49.00
38.2302	59.00
38.2506	97.00
38.271	77.00
38.2914	80.00
38.3119	68.00
38.3323	76.00
38.3527	72.00
38.3731	78.00
38.3936	75.00
38.414	43.00
38.4344	54.00
38.4548	53.00
38.4753	32.00
38.4957	32.00
38.5161	34.00
38.5365	24.00
38.5569	32.00
38.5774	26.00
38.5978	32.00
38.6182	29.00
38.6386	32.00
38.6591	34.00
38.6795	27.00
38.6999	24.00
38.7203	40.00
38.7408	45.00
38.7612	64.00
38.7816	71.00
38.802	83.00
38.8225	88.00
38.8429	84.00
38.8633	66.00
38.8837	66.00
38.9042	63.00
38.9246	61.00
38.945	57.00
38.9654	42.00
38.9859	45.00
39.0063	44.00
39.0267	36.00
39.0471	53.00
39.0676	45.00
39.088	39.00
39.1084	42.00
39.1288	49.00
39.1492	44.00
39.1697	47.00
39.1901	63.00
39.2105	69.00
39.2309	51.00
39.2514	50.00
39.2718	51.00
39.2922	40.00
39.3126	40.00
39.3331	36.00
39.3535	49.00
39.3739	43.00
39.3943	47.00
39.4148	44.00
39.4352	51.00
39.4556	51.00
39.476	39.00
39.4965	63.00
39.5169	43.00
39.5373	48.00
39.5577	79.00
39.5782	79.00
39.5986	118.00
39.619	170.00
39.6394	243.00
39.6599	283.00
39.6803	252.00
39.7007	259.00
39.7211	241.00
39.7416	212.00
39.762	199.00
39.7824	182.00
39.8028	167.00
39.8232	129.00
39.8437	89.00
39.8641	122.00
39.8845	113.00
39.9049	90.00
39.9254	92.00
39.9458	103.00
39.9662	128.00
39.9866	196.00
40.0071	274.00
40.0275	240.00
40.0479	215.00
40.0683	191.00
40.0888	194.00
40.1092	194.00
40.1296	190.00
40.15	161.00
40.1705	108.00
40.1909	113.00
40.2113	80.00
40.2317	84.00
40.2522	61.00
40.2726	58.00
40.293	56.00
40.3134	39.00
40.3339	38.00
40.3543	40.00
40.3747	40.00
40.3951	36.00
40.4155	36.00
40.436	27.00
40.4564	28.00
40.4768	31.00
40.4972	28.00
40.5177	34.00
40.5381	27.00
40.5585	21.00
40.5789	34.00
40.5994	48.00
40.6198	34.00
40.6402	32.00
40.6606	43.00
40.6811	39.00
40.7015	56.00
40.7219	24.00
40.7423	52.00
40.7628	41.00
40.7832	42.00
40.8036	48.00
40.824	43.00
40.8445	53.00
40.8649	42.00
40.8853	34.00
40.9057	36.00
40.9262	46.00
40.9466	38.00
40.967	47.00
40.9874	51.00
41.0079	52.00
41.0283	45.00
41.0487	43.00
41.0691	28.00
41.0895	31.00
41.11	33.00
41.1304	46.00
41.1508	24.00
41.1712	28.00
41.1917	26.00
41.2121	28.00
41.2325	20.00
41.2529	29.00
41.2734	25.00
41.2938	42.00
41.3142	24.00
41.3346	23.00
41.3551	32.00
41.3755	23.00
41.3959	30.00
41.4163	31.00
41.4368	35.00
41.4572	23.00
41.4776	31.00
41.498	31.00
41.5185	27.00
41.5389	23.00
41.5593	37.00
41.5797	38.00
41.6002	29.00
41.6206	36.00
41.641	41.00
41.6614	43.00
41.6818	73.00
41.7023	114.00
41.7227	142.00
41.7431	153.00
41.7635	150.00
41.784	112.00
41.8044	112.00
41.8248	106.00
41.8452	112.00
41.8657	108.00
41.8861	92.00
41.9065	88.00
41.9269	64.00
41.9474	66.00
41.9678	53.00
41.9882	41.00
42.0086	57.00
42.0291	65.00
42.0495	35.00
42.0699	41.00
42.0903	38.00
42.1108	34.00
42.1312	47.00
42.1516	32.00
42.172	37.00
42.1925	28.00
42.2129	33.00
42.2333	39.00
42.2537	34.00
42.2742	41.00
42.2946	40.00
42.315	40.00
42.3354	46.00
42.3558	40.00
42.3763	42.00
42.3967	66.00
42.4171	56.00
42.4375	76.00
42.458	80.00
42.4784	45.00
42.4988	41.00
42.5192	43.00
42.5397	61.00
42.5601	40.00
42.5805	41.00
42.6009	38.00
42.6214	33.00
42.6418	38.00
42.6622	25.00
42.6826	41.00
42.7031	39.00
42.7235	35.00
42.7439	26.00
42.7643	32.00
42.7848	40.00
42.8052	24.00
42.8256	25.00
42.846	31.00
42.8665	28.00
42.8869	39.00
42.9073	41.00
42.9277	43.00
42.9481	39.00
42.9686	36.00
42.989	40.00
43.0094	27.00
43.0298	34.00
43.0503	31.00
43.0707	32.00
43.0911	26.00
43.1115	26.00
43.132	23.00
43.1524	37.00
43.1728	37.00
43.1932	56.00
43.2137	46.00
43.2341	33.00
43.2545	38.00
43.2749	26.00
43.2954	30.00
43.3158	41.00
43.3362	25.00
43.3566	43.00
43.3771	29.00
43.3975	32.00
43.4179	25.00
43.4383	30.00
43.4588	15.00
43.4792	27.00
43.4996	11.00
43.52	13.00
43.5404	20.00
43.5609	11.00
43.5813	26.00
43.6017	24.00
43.6221	27.00
43.6426	26.00
43.663	13.00
43.6834	26.00
43.7038	11.00
43.7243	23.00
43.7447	19.00
43.7651	18.00
43.7855	15.00
43.806	26.00
43.8264	23.00
43.8468	20.00
43.8672	20.00
43.8877	15.00
43.9081	16.00
43.9285	21.00
43.9489	25.00
43.9694	27.00
43.9898	28.00
44.0102	25.00
44.0306	22.00
44.0511	16.00
44.0715	25.00
44.0919	26.00
44.1123	29.00
44.1328	26.00
44.1532	30.00
44.1736	22.00
44.194	18.00
44.2144	35.00
44.2349	34.00
44.2553	27.00
44.2757	21.00
44.2961	41.00
44.3166	25.00
44.337	38.00
44.3574	31.00
44.3778	47.00
44.3983	55.00
44.4187	42.00
44.4391	59.00
44.4595	65.00
44.48	69.00
44.5004	71.00
44.5208	63.00
44.5412	66.00
44.5617	70.00
44.5821	52.00
44.6025	51.00
44.6229	50.00
44.6434	47.00
44.6638	38.00
44.6842	42.00
44.7046	39.00
44.7251	35.00
44.7455	26.00
44.7659	27.00
44.7863	24.00
44.8067	29.00
44.8272	37.00
44.8476	23.00
44.868	29.00
44.8884	40.00
44.9089	38.00
44.9293	36.00
44.9497	33.00
44.9701	31.00
44.9906	37.00
45.011	33.00
45.0314	25.00
45.0518	30.00
45.0723	46.00
45.0927	35.00
45.1131	40.00
45.1335	25.00
45.154	29.00
45.1744	39.00
45.1948	36.00
45.2152	29.00
45.2357	33.00
45.2561	18.00
45.2765	24.00
45.2969	22.00
45.3174	28.00
45.3378	31.00
45.3582	25.00
45.3786	22.00
45.3991	18.00
45.4195	18.00
45.4399	20.00
45.4603	15.00
45.4807	16.00
45.5012	17.00
45.5216	25.00
45.542	21.00
45.5624	17.00
45.5829	19.00
45.6033	17.00
45.6237	26.00
45.6441	20.00
45.6646	27.00
45.685	15.00
45.7054	21.00
45.7258	22.00
45.7463	21.00
45.7667	24.00
45.7871	23.00
45.8075	24.00
45.828	24.00
45.8484	32.00
45.8688	24.00
45.8892	24.00
45.9097	22.00
45.9301	30.00
45.9505	21.00
45.9709	20.00
45.9914	22.00
46.0118	18.00
46.0322	38.00
46.0526	20.00
46.073	44.00
46.0935	33.00
46.1139	32.00
46.1343	23.00
46.1547	29.00
46.1752	26.00
46.1956	29.00
46.216	24.00
46.2364	25.00
46.2569	31.00
46.2773	22.00
46.2977	19.00
46.3181	18.00
46.3386	25.00
46.359	23.00
46.3794	28.00
46.3998	33.00
46.4203	32.00
46.4407	29.00
46.4611	46.00
46.4815	54.00
46.502	42.00
46.5224	53.00
46.5428	30.00
46.5632	38.00
46.5837	47.00
46.6041	38.00
46.6245	44.00
46.6449	39.00
46.6654	34.00
46.6858	36.00
46.7062	33.00
46.7266	22.00
46.747	29.00
46.7675	39.00
46.7879	30.00
46.8083	28.00
46.8287	36.00
46.8492	22.00
46.8696	30.00
46.89	27.00
46.9104	24.00
46.9309	18.00
46.9513	18.00
46.9717	32.00
46.9921	15.00
47.0126	26.00
47.033	18.00
47.0534	15.00
47.0738	20.00
47.0943	14.00
47.1147	18.00
47.1351	20.00
47.1555	26.00
47.176	12.00
47.1964	23.00
47.2168	21.00
47.2372	17.00
47.2577	20.00
47.2781	16.00
47.2985	17.00
47.3189	11.00
47.3393	17.00
47.3598	16.00
47.3802	14.00
47.4006	20.00
47.421	14.00
47.4415	17.00
47.4619	23.00
47.4823	16.00
47.5027	20.00
47.5232	20.00
47.5436	16.00
47.564	15.00
47.5844	26.00
47.6049	11.00
47.6253	22.00
47.6457	11.00
47.6661	19.00
47.6866	25.00
47.707	13.00
47.7274	13.00
47.7478	18.00
47.7683	14.00
47.7887	13.00
47.8091	17.00
47.8295	22.00
47.85	13.00
47.8704	11.00
47.8908	22.00
47.9112	23.00
47.9317	13.00
47.9521	19.00
47.9725	18.00
47.9929	11.00
48.0133	18.00
48.0338	27.00
48.0542	15.00
48.0746	18.00
48.095	6.00
48.1155	26.00
48.1359	12.00
48.1563	17.00
48.1767	19.00
48.1972	16.00
48.2176	27.00
48.238	19.00
48.2584	26.00
48.2789	23.00
48.2993	21.00
48.3197	27.00
48.3401	34.00
48.3606	38.00
48.381	56.00
48.4014	62.00
48.4218	57.00
48.4423	60.00
48.4627	60.00
48.4831	57.00
48.5035	58.00
48.524	66.00
48.5444	50.00
48.5648	55.00
48.5852	41.00
48.6056	39.00
48.6261	36.00
48.6465	31.00
48.6669	38.00
48.6873	29.00
48.7078	33.00
48.7282	25.00
48.7486	21.00
48.769	21.00
48.7895	33.00
48.8099	27.00
48.8303	30.00
48.8507	32.00
48.8712	34.00
48.8916	34.00
48.912	27.00
48.9324	37.00
48.9529	41.00
48.9733	33.00
48.9937	34.00
49.0141	23.00
49.0346	27.00
49.055	35.00
49.0754	32.00
49.0958	37.00
49.1163	25.00
49.1367	36.00
49.1571	31.00
49.1775	27.00
49.198	30.00
49.2184	32.00
49.2388	43.00
49.2592	30.00
49.2796	38.00
49.3001	29.00
49.3205	33.00
49.3409	36.00
49.3613	40.00
49.3818	32.00
49.4022	44.00
49.4226	37.00
49.443	34.00
49.4635	44.00
49.4839	48.00
49.5043	48.00
49.5247	46.00
49.5452	35.00
49.5656	50.00
49.586	37.00
49.6064	39.00
49.6269	38.00
49.6473	46.00
49.6677	45.00
49.6881	32.00
49.7086	45.00
49.729	53.00
49.7494	51.00
49.7698	56.00
49.7903	36.00
49.8107	50.00
49.8311	56.00
49.8515	50.00
49.8719	44.00
49.8924	39.00
49.9128	35.00
49.9332	33.00
49.9536	41.00
49.9741	44.00
49.9945	36.00
50.0149	21.00
50.0353	33.00
50.0558	35.00
50.0762	26.00
50.0966	21.00
50.117	22.00
50.1375	31.00
50.1579	22.00
50.1783	21.00
50.1987	30.00
50.2192	20.00
50.2396	30.00
50.26	36.00
50.2804	48.00
50.3009	53.00
50.3213	57.00
50.3417	44.00
50.3621	49.00
50.3826	28.00
50.403	47.00
50.4234	58.00
50.4438	35.00
50.4642	32.00
50.4847	38.00
50.5051	36.00
50.5255	27.00
50.5459	36.00
50.5664	36.00
50.5868	25.00
50.6072	27.00
50.6276	22.00
50.6481	21.00
50.6685	31.00
50.6889	25.00
50.7093	30.00
50.7298	33.00
50.7502	31.00
50.7706	26.00
50.791	38.00
50.8115	33.00
50.8319	28.00
50.8523	30.00
50.8727	35.00
50.8932	32.00
50.9136	42.00
50.934	43.00
50.9544	45.00
50.9749	33.00
50.9953	47.00
51.0157	26.00
51.0361	41.00
51.0566	49.00
51.077	46.00
51.0974	35.00
51.1178	35.00
51.1382	41.00
51.1587	21.00
51.1791	31.00
51.1995	27.00
51.2199	26.00
51.2404	21.00
51.2608	25.00
51.2812	30.00
51.3016	29.00
51.3221	25.00
51.3425	24.00
51.3629	25.00
51.3833	26.00
51.4038	23.00
51.4242	19.00
51.4446	26.00
51.465	30.00
51.4855	24.00
51.5059	24.00
51.5263	24.00
51.5467	21.00
51.5672	26.00
51.5876	30.00
51.608	30.00
51.6284	34.00
51.6489	26.00
51.6693	19.00
51.6897	26.00
51.7101	26.00
51.7305	31.00
51.751	26.00
51.7714	31.00
51.7918	33.00
51.8122	32.00
51.8327	39.00
51.8531	34.00
51.8735	43.00
51.8939	42.00
51.9144	42.00
51.9348	46.00
51.9552	60.00
51.9756	67.00
51.9961	66.00
52.0165	64.00
52.0369	88.00
52.0573	85.00
52.0778	99.00
52.0982	123.00
52.1186	156.00
52.139	196.00
52.1595	244.00
52.1799	339.00
52.2003	386.00
52.2207	394.00
52.2412	344.00
52.2616	394.00
52.282	362.00
52.3024	347.00
52.3229	352.00
52.3433	316.00
52.3637	313.00
52.3841	294.00
52.4045	243.00
52.425	246.00
52.4454	239.00
52.4658	263.00
52.4862	241.00
52.5067	216.00
52.5271	189.00
52.5475	197.00
52.5679	161.00
52.5884	155.00
52.6088	156.00
52.6292	144.00
52.6496	133.00
52.6701	108.00
52.6905	117.00
52.7109	104.00
52.7313	98.00
52.7518	87.00
52.7722	88.00
52.7926	90.00
52.813	87.00
52.8335	92.00
52.8539	60.00
52.8743	74.00
52.8947	57.00
52.9152	46.00
52.9356	49.00
52.956	58.00
52.9764	58.00
52.9968	35.00
53.0173	43.00
53.0377	46.00
53.0581	44.00
53.0785	49.00
53.099	42.00
53.1194	46.00
53.1398	41.00
53.1602	45.00
53.1807	24.00
53.2011	36.00
53.2215	40.00
53.2419	34.00
53.2624	32.00
53.2828	30.00
53.3032	33.00
53.3236	34.00
53.3441	25.00
53.3645	24.00
53.3849	29.00
53.4053	36.00
53.4258	25.00
53.4462	33.00
53.4666	31.00
53.487	33.00
53.5075	30.00
53.5279	30.00
53.5483	27.00
53.5687	21.00
53.5892	28.00
53.6096	30.00
53.63	36.00
53.6504	31.00
53.6708	29.00
53.6913	31.00
53.7117	31.00
53.7321	40.00
53.7525	29.00
53.773	32.00
53.7934	38.00
53.8138	43.00
53.8342	40.00
53.8547	38.00
53.8751	36.00
53.8955	40.00
53.9159	41.00
53.9364	39.00
53.9568	39.00
53.9772	53.00
53.9976	40.00
54.0181	48.00
54.0385	48.00
54.0589	61.00
54.0793	62.00
54.0998	50.00
54.1202	54.00
54.1406	41.00
54.161	52.00
54.1815	36.00
54.2019	45.00
54.2223	36.00
54.2427	51.00
54.2631	35.00
54.2836	42.00
54.304	32.00
54.3244	29.00
54.3448	39.00
54.3653	32.00
54.3857	33.00
54.4061	33.00
54.4265	30.00
54.447	35.00
54.4674	28.00
54.4878	35.00
54.5082	32.00
54.5287	41.00
54.5491	25.00
54.5695	39.00
54.5899	25.00
54.6104	36.00
54.6308	53.00
54.6512	26.00
54.6716	38.00
54.6921	42.00
54.7125	47.00
54.7329	43.00
54.7533	53.00
54.7738	52.00
54.7942	81.00
54.8146	92.00
54.835	105.00
54.8555	102.00
54.8759	117.00
54.8963	96.00
54.9167	87.00
54.9371	80.00
54.9576	116.00
54.978	102.00
54.9984	98.00
55.0188	88.00
55.0393	75.00
55.0597	82.00
55.0801	58.00
55.1005	51.00
55.121	68.00
55.1414	48.00
55.1618	42.00
55.1822	47.00
55.2027	51.00
55.2231	29.00
55.2435	41.00
55.2639	39.00
55.2844	27.00
55.3048	28.00
55.3252	40.00
55.3456	36.00
55.3661	34.00
55.3865	38.00
55.4069	46.00
55.4273	28.00
55.4478	43.00
55.4682	35.00
55.4886	35.00
55.509	34.00
55.5294	33.00
55.5499	26.00
55.5703	33.00
55.5907	28.00
55.6111	28.00
55.6316	30.00
55.652	35.00
55.6724	23.00
55.6928	31.00
55.7133	35.00
55.7337	35.00
55.7541	27.00
55.7745	38.00
55.795	34.00
55.8154	34.00
55.8358	29.00
55.8562	31.00
55.8767	34.00
55.8971	35.00
55.9175	51.00
55.9379	36.00
55.9584	57.00
55.9788	52.00
55.9992	64.00
56.0196	90.00
56.0401	122.00
56.0605	160.00
56.0809	184.00
56.1013	159.00
56.1218	129.00
56.1422	116.00
56.1626	111.00
56.183	129.00
56.2034	138.00
56.2239	144.00
56.2443	156.00
56.2647	131.00
56.2851	104.00
56.3056	78.00
56.326	116.00
56.3464	104.00
56.3668	88.00
56.3873	80.00
56.4077	66.00
56.4281	67.00
56.4485	62.00
56.469	67.00
56.4894	71.00
56.5098	65.00
56.5302	81.00
56.5507	70.00
56.5711	74.00
56.5915	87.00
56.6119	71.00
56.6324	92.00
56.6528	99.00
56.6732	112.00
56.6936	109.00
56.7141	101.00
56.7345	117.00
56.7549	155.00
56.7753	126.00
56.7957	171.00
56.8162	137.00
56.8366	138.00
56.857	123.00
56.8774	146.00
56.8979	133.00
56.9183	129.00
56.9387	133.00
56.9591	132.00
56.9796	114.00
57	108.00
57.0204	85.00
57.0408	88.00
57.0613	81.00
57.0817	86.00
57.1021	77.00
57.1225	75.00
57.143	79.00
57.1634	81.00
57.1838	73.00
57.2042	66.00
57.2247	56.00
57.2451	42.00
57.2655	70.00
57.2859	54.00
57.3064	51.00
57.3268	46.00
57.3472	41.00
57.3676	45.00
57.388	37.00
57.4085	62.00
57.4289	41.00
57.4493	58.00
57.4697	49.00
57.4902	47.00
57.5106	50.00
57.531	40.00
57.5514	47.00
57.5719	47.00
57.5923	46.00
57.6127	56.00
57.6331	33.00
57.6536	40.00
57.674	38.00
57.6944	34.00
57.7148	39.00
57.7353	24.00
57.7557	30.00
57.7761	37.00
57.7965	47.00
57.817	50.00
57.8374	36.00
57.8578	37.00
57.8782	43.00
57.8987	56.00
57.9191	44.00
57.9395	43.00
57.9599	42.00
57.9804	48.00
58.0008	43.00
58.0212	60.00
58.0416	44.00
58.062	54.00
58.0825	37.00
58.1029	40.00
58.1233	47.00
58.1437	56.00
58.1642	35.00
58.1846	44.00
58.205	46.00
58.2254	35.00
58.2459	34.00
58.2663	41.00
58.2867	40.00
58.3071	27.00
58.3276	39.00
58.348	42.00
58.3684	31.00
58.3888	32.00
58.4093	25.00
58.4297	39.00
58.4501	24.00
58.4705	37.00
58.491	35.00
58.5114	43.00
58.5318	47.00
58.5522	51.00
58.5727	66.00
58.5931	69.00
58.6135	70.00
58.6339	106.00
58.6543	83.00
58.6748	69.00
58.6952	78.00
58.7156	75.00
58.736	73.00
58.7565	91.00
58.7769	85.00
58.7973	89.00
58.8177	85.00
58.8382	70.00
58.8586	76.00
58.879	69.00
58.8994	69.00
58.9199	65.00
58.9403	63.00
58.9607	55.00
58.9811	50.00
59.0016	56.00
59.022	57.00
59.0424	49.00
59.0628	39.00
59.0833	46.00
59.1037	35.00
59.1241	45.00
59.1445	46.00
59.165	42.00
59.1854	40.00
59.2058	38.00
59.2262	29.00
59.2467	37.00
59.2671	30.00
59.2875	44.00
59.3079	31.00
59.3283	36.00
59.3488	33.00
59.3692	32.00
59.3896	32.00
59.41	31.00
59.4305	35.00
59.4509	31.00
59.4713	35.00
59.4917	28.00
59.5122	33.00
59.5326	39.00
59.553	36.00
59.5734	23.00
59.5939	32.00
59.6143	27.00
59.6347	37.00
59.6551	30.00
59.6756	33.00
59.696	33.00
59.7164	30.00
59.7368	41.00
59.7573	36.00
59.7777	31.00
59.7981	26.00
59.8185	26.00
59.839	24.00
59.8594	31.00
59.8798	35.00
59.9002	37.00
59.9206	39.00
59.9411	28.00
59.9615	31.00
59.9819	28.00
60.0023	33.00
60.0228	23.00
60.0432	30.00
60.0636	34.00
60.084	37.00
60.1045	20.00
60.1249	32.00
60.1453	28.00
60.1657	31.00
60.1862	35.00
60.2066	53.00
60.227	38.00
60.2474	40.00
60.2679	32.00
60.2883	39.00
60.3087	37.00
60.3291	36.00
60.3496	35.00
60.37	38.00
60.3904	47.00
60.4108	37.00
60.4313	35.00
60.4517	45.00
60.4721	58.00
60.4925	49.00
60.513	46.00
60.5334	57.00
60.5538	48.00
60.5742	54.00
60.5946	47.00
60.6151	55.00
60.6355	54.00
60.6559	60.00
60.6763	42.00
60.6968	66.00
60.7172	55.00
60.7376	58.00
60.758	64.00
60.7785	53.00
60.7989	57.00
60.8193	59.00
60.8397	61.00
60.8602	67.00
60.8806	68.00
60.901	56.00
60.9214	72.00
60.9419	62.00
60.9623	55.00
60.9827	68.00
61.0031	58.00
61.0236	66.00
61.044	89.00
61.0644	86.00
61.0848	90.00
61.1053	67.00
61.1257	94.00
61.1461	77.00
61.1665	78.00
61.1869	77.00
61.2074	81.00
61.2278	84.00
61.2482	75.00
61.2686	76.00
61.2891	61.00
61.3095	68.00
61.3299	76.00
61.3503	61.00
61.3708	63.00
61.3912	73.00
61.4116	56.00
61.432	72.00
61.4525	63.00
61.4729	68.00
61.4933	90.00
61.5137	83.00
61.5342	78.00
61.5546	95.00
61.575	105.00
61.5954	111.00
61.6159	94.00
61.6363	85.00
61.6567	78.00
61.6771	74.00
61.6976	114.00
61.718	128.00
61.7384	135.00
61.7588	136.00
61.7793	123.00
61.7997	123.00
61.8201	110.00
61.8405	149.00
61.8609	149.00
61.8814	170.00
61.9018	168.00
61.9222	199.00
61.9426	188.00
61.9631	181.00
61.9835	187.00
62.0039	160.00
62.0243	190.00
62.0448	174.00
62.0652	159.00
62.0856	163.00
62.106	147.00
62.1265	142.00
62.1469	131.00
62.1673	123.00
62.1877	117.00
62.2082	117.00
62.2286	122.00
62.249	78.00
62.2694	98.00
62.2899	95.00
62.3103	79.00
62.3307	82.00
62.3511	104.00
62.3716	99.00
62.392	89.00
62.4124	111.00
62.4328	107.00
62.4532	101.00
62.4737	120.00
62.4941	123.00
62.5145	126.00
62.5349	129.00
62.5554	111.00
62.5758	114.00
62.5962	154.00
62.6166	164.00
62.6371	194.00
62.6575	273.00
62.6779	309.00
62.6983	317.00
62.7188	306.00
62.7392	272.00
62.7596	255.00
62.78	216.00
62.8005	222.00
62.8209	234.00
62.8413	256.00
62.8617	250.00
62.8822	266.00
62.9026	219.00
62.923	197.00
62.9434	149.00
62.9639	164.00
62.9843	142.00
63.0047	115.00
63.0251	112.00
63.0456	116.00
63.066	101.00
63.0864	101.00
63.1068	91.00
63.1272	76.00
63.1477	78.00
63.1681	68.00
63.1885	64.00
63.2089	80.00
63.2294	73.00
63.2498	67.00
63.2702	64.00
63.2906	57.00
63.3111	56.00
63.3315	56.00
63.3519	65.00
63.3723	65.00
63.3928	62.00
63.4132	54.00
63.4336	49.00
63.454	48.00
63.4745	36.00
63.4949	60.00
63.5153	50.00
63.5357	41.00
63.5562	52.00
63.5766	44.00
63.597	50.00
63.6174	55.00
63.6379	40.00
63.6583	53.00
63.6787	47.00
63.6991	40.00
63.7195	61.00
63.74	42.00
63.7604	44.00
63.7808	42.00
63.8012	50.00
63.8217	55.00
63.8421	42.00
63.8625	33.00
63.8829	34.00
63.9034	38.00
63.9238	56.00
63.9442	44.00
63.9646	65.00
63.9851	53.00
64.0055	55.00
64.0259	42.00
64.0463	41.00
64.0668	37.00
64.0872	41.00
64.1076	44.00
64.128	39.00
64.1485	41.00
64.1689	48.00
64.1893	42.00
64.2097	41.00
64.2302	45.00
64.2506	25.00
64.271	50.00
64.2914	38.00
64.3118	28.00
64.3323	39.00
64.3527	37.00
64.3731	35.00
64.3935	46.00
64.414	45.00
64.4344	32.00
64.4548	36.00
64.4752	35.00
64.4957	43.00
64.5161	24.00
64.5365	30.00
64.5569	40.00
64.5774	31.00
64.5978	30.00
64.6182	27.00
64.6386	42.00
64.6591	37.00
64.6795	35.00
64.6999	50.00
64.7203	52.00
64.7408	50.00
64.7612	52.00
64.7816	47.00
64.802	48.00
64.8225	49.00
64.8429	48.00
64.8633	38.00
64.8837	47.00
64.9042	63.00
64.9246	56.00
64.945	46.00
64.9654	36.00
64.9858	46.00
65.0063	34.00
65.0267	32.00
65.0471	40.00
65.0675	43.00
65.088	29.00
65.1084	41.00
65.1288	26.00
65.1492	29.00
65.1697	32.00
65.1901	25.00
65.2105	31.00
65.2309	27.00
65.2514	30.00
65.2718	41.00
65.2922	24.00
65.3126	34.00
65.3331	23.00
65.3535	42.00
65.3739	33.00
65.3943	37.00
65.4148	32.00
65.4352	49.00
65.4556	49.00
65.476	46.00
65.4965	36.00
65.5169	34.00
65.5373	55.00
65.5577	46.00
65.5781	45.00
65.5986	39.00
65.619	52.00
65.6394	45.00
65.6598	50.00
65.6803	48.00
65.7007	54.00
65.7211	52.00
65.7415	70.00
65.762	75.00
65.7824	86.00
65.8028	81.00
65.8232	80.00
65.8437	87.00
65.8641	74.00
65.8845	65.00
65.9049	57.00
65.9254	50.00
65.9458	47.00
65.9662	55.00
65.9866	56.00
66.0071	68.00
66.0275	57.00
66.0479	57.00
66.0683	61.00
66.0888	46.00
66.1092	43.00
66.1296	34.00
66.15	39.00
66.1705	40.00
66.1909	55.00
66.2113	41.00
66.2317	38.00
66.2521	43.00
66.2726	52.00
66.293	35.00
66.3134	33.00
66.3338	44.00
66.3543	51.00
66.3747	37.00
66.3951	36.00
66.4155	43.00
66.436	52.00
66.4564	37.00
66.4768	35.00
66.4972	45.00
66.5177	42.00
66.5381	59.00
66.5585	47.00
66.5789	60.00
66.5994	61.00
66.6198	52.00
66.6402	49.00
66.6606	46.00
66.6811	54.00
66.7015	41.00
66.7219	52.00
66.7423	50.00
66.7628	76.00
66.7832	87.00
66.8036	70.00
66.824	94.00
66.8444	82.00
66.8649	93.00
66.8853	88.00
66.9057	96.00
66.9261	93.00
66.9466	92.00
66.967	100.00
66.9874	130.00
67.0078	120.00
67.0283	143.00
67.0487	122.00
67.0691	122.00
67.0895	114.00
67.11	96.00
67.1304	109.00
67.1508	107.00
67.1712	104.00
67.1917	111.00
67.2121	119.00
67.2325	89.00
67.2529	88.00
67.2734	89.00
67.2938	103.00
67.3142	104.00
67.3346	109.00
67.3551	97.00
67.3755	105.00
67.3959	111.00
67.4163	92.00
67.4368	103.00
67.4572	75.00
67.4776	76.00
67.498	71.00
67.5184	102.00
67.5389	67.00
67.5593	65.00
67.5797	72.00
67.6001	51.00
67.6206	51.00
67.641	48.00
67.6614	50.00
67.6818	43.00
67.7023	55.00
67.7227	46.00
67.7431	38.00
67.7635	37.00
67.784	36.00
67.8044	34.00
67.8248	39.00
67.8452	49.00
67.8657	37.00
67.8861	48.00
67.9065	27.00
67.9269	34.00
67.9474	32.00
67.9678	40.00
67.9882	28.00
68.0086	31.00
68.0291	42.00
68.0495	35.00
68.0699	32.00
68.0903	39.00
68.1107	33.00
68.1312	34.00
68.1516	33.00
68.172	37.00
68.1924	37.00
68.2129	34.00
68.2333	32.00
68.2537	41.00
68.2741	26.00
68.2946	43.00
68.315	29.00
68.3354	26.00
68.3558	27.00
68.3763	24.00
68.3967	26.00
68.4171	41.00
68.4375	31.00
68.458	31.00
68.4784	24.00
68.4988	32.00
68.5192	32.00
68.5397	30.00
68.5601	31.00
68.5805	37.00
68.6009	27.00
68.6214	31.00
68.6418	27.00
68.6622	38.00
68.6826	37.00
68.7031	24.00
68.7235	33.00
68.7439	30.00
68.7643	30.00
68.7847	21.00
68.8052	35.00
68.8256	24.00
68.846	36.00
68.8664	22.00
68.8869	29.00
68.9073	39.00
68.9277	33.00
68.9481	40.00
68.9686	32.00
68.989	28.00
69.0094	39.00
69.0298	42.00
69.0503	36.00
69.0707	38.00
69.0911	33.00
69.1115	25.00
69.132	42.00
69.1524	49.00
69.1728	37.00
69.1932	43.00
69.2137	40.00
69.2341	44.00
69.2545	56.00
69.2749	46.00
69.2954	47.00
69.3158	41.00
69.3362	71.00
69.3566	62.00
69.377	90.00
69.3975	100.00
69.4179	144.00
69.4383	150.00
69.4587	151.00
69.4792	155.00
69.4996	136.00
69.52	139.00
69.5404	128.00
69.5609	121.00
69.5813	128.00
69.6017	127.00
69.6221	142.00
69.6426	136.00
69.663	145.00
69.6834	131.00
69.7038	126.00
69.7243	138.00
69.7447	109.00
69.7651	123.00
69.7855	98.00
69.806	104.00
69.8264	84.00
69.8468	74.00
69.8672	78.00
69.8877	75.00
69.9081	73.00
69.9285	73.00
69.9489	63.00
69.9694	68.00
69.9898	63.00
70.0102	54.00
